2.091060570 38.0
2.143581701 37.0
2.196102831 40.0
2.248623962 45.0
2.301145093 40.0
2.353666224 52.0
2.406187354 53.0
2.458708485 45.0
2.511229616 69.0
2.563750746 57.0
2.616271877 43.0
2.668793008 47.0
2.721314138 54.0
2.773835269 59.0
2.826356400 51.0
2.878877531 72.0
2.931398661 55.0
2.983919792 62.0
3.036440923 57.0
3.088962053 44.0
3.141483184 61.0
3.194004315 61.0
3.246525445 66.0
3.299046576 72.0
3.351567707 66.0
3.404088838 65.0
3.456609968 64.0
3.509131099 66.0
3.561652230 65.0
3.614173360 65.0
3.666694491 58.0
3.719215622 62.0
3.771736753 51.0
3.824257883 61.0
3.876779014 48.0
3.929300145 60.0
3.981821275 65.0
4.034342406 77.0
4.086863537 48.0
4.139384667 66.0
4.191905798 77.0
4.244426929 58.0
4.296948060 65.0
4.349469190 45.0
4.401990321 80.0
4.454511452 55.0
4.507032582 70.0
4.559553713 69.0
4.612074844 63.0
4.664595975 76.0
4.717117105 67.0
4.769638236 75.0
4.822159367 83.0
4.874680497 71.0
4.927201628 76.0
4.979722759 70.0
5.032243889 68.0
5.084765020 72.0
5.137286151 64.0
5.189807282 71.0
5.242328412 82.0
5.294849543 74.0
5.347370674 79.0
5.399891804 55.0
5.452412935 81.0
5.504934066 60.0
5.557455196 76.0
5.609976327 78.0
5.662497458 64.0
5.715018589 65.0
5.767539719 65.0
5.820060850 65.0
5.872581981 76.0
5.925103111 79.0
5.977624242 71.0
6.030145373 63.0
6.082666504 73.0
6.135187634 62.0
6.187708765 67.0
6.240229896 77.0
6.292751026 68.0
6.345272157 62.0
6.397793288 69.0
6.450314418 70.0
6.502835549 71.0
6.555356680 55.0
6.607877811 61.0
6.660398941 65.0
6.712920072 78.0
6.765441203 79.0
6.817962333 72.0
6.870483464 65.0
6.923004595 79.0
6.975525726 63.0
7.028046856 78.0
7.080567987 68.0
7.133089118 85.0
7.185610248 76.0
7.238131379 69.0
7.290652510 79.0
7.343173640 72.0
7.395694771 85.0
7.448215902 74.0
7.500737033 84.0
7.553258163 68.0
7.605779294 62.0
7.658300425 85.0
7.710821555 91.0
7.763342686 71.0
7.815863817 62.0
7.868384947 90.0
7.920906078 91.0
7.973427209 82.0
8.025948340 97.0
8.078469470 119.0
8.130990601 121.0
8.183511732 130.0
8.236032862 156.0
8.288553993 263.0
8.341075124 387.0
8.393596255 509.0
8.446117385 349.0
8.498638516 167.0
8.551159647 78.0
8.603680777 71.0
8.656201908 66.0
8.708723039 79.0
8.761244169 78.0
8.813765300 86.0
8.866286431 63.0
8.918807562 75.0
8.971328692 88.0
9.023849823 77.0
9.076370954 71.0
9.128892084 99.0
9.181413215 70.0
9.233934346 70.0
9.286455477 73.0
9.338976607 97.0
9.391497738 82.0
9.444018869 76.0
9.496539999 81.0
9.549061130 82.0
9.601582261 78.0
9.654103391 77.0
9.706624522 78.0
9.759145653 83.0
9.811666784 75.0
9.864187914 83.0
9.916709045 78.0
9.969230176 68.0
10.021751306 86.0
10.074272437 84.0
10.126793568 68.0
10.179314698 85.0
10.231835829 89.0
10.284356960 78.0
10.336878091 77.0
10.389399221 65.0
10.441920352 75.0
10.494441483 75.0
10.546962613 69.0
10.599483744 76.0
10.652004875 76.0
10.704526006 86.0
10.757047136 91.0
10.809568267 68.0
10.862089398 111.0
10.914610528 95.0
10.967131659 74.0
11.019652790 81.0
11.072173920 76.0
11.124695051 75.0
11.177216182 88.0
11.229737313 77.0
11.282258443 87.0
11.334779574 130.0
11.387300705 163.0
11.439821835 211.0
11.492342966 262.0
11.544864097 410.0
11.597385228 606.0
11.649906358 953.0
11.702427489 1677.0
11.754948620 2471.0
11.807469750 2016.0
11.859990881 883.0
11.912512012 212.0
11.965033142 89.0
12.017554273 88.0
12.070075404 83.0
12.122596535 76.0
12.175117665 75.0
12.227638796 79.0
12.280159927 97.0
12.332681057 93.0
12.385202188 79.0
12.437723319 101.0
12.490244449 124.0
12.542765580 139.0
12.595286711 218.0
12.647807842 343.0
12.700328972 474.0
12.752850103 769.0
12.805371234 1099.0
12.857892364 1210.0
12.910413495 734.0
12.962934626 430.0
13.015455757 399.0
13.067976887 626.0
13.120498018 957.0
13.173019149 1600.0
13.225540279 2170.0
13.278061410 1799.0
13.330582541 854.0
13.383103671 224.0
13.435624802 108.0
13.488145933 67.0
13.540667064 80.0
13.593188194 93.0
13.645709325 80.0
13.698230456 73.0
13.750751586 87.0
13.803272717 96.0
13.855793848 67.0
13.908314979 67.0
13.960836109 67.0
14.013357240 82.0
14.065878371 73.0
14.118399501 71.0
14.170920632 94.0
14.223441763 88.0
14.275962893 76.0
14.328484024 78.0
14.381005155 76.0
14.433526286 73.0
14.486047416 92.0
14.538568547 78.0
14.591089678 73.0
14.643610808 84.0
14.696131939 71.0
14.748653070 91.0
14.801174200 75.0
14.853695331 87.0
14.906216462 84.0
14.958737593 91.0
15.011258723 82.0
15.063779854 87.0
15.116300985 89.0
15.168822115 83.0
15.221343246 82.0
15.273864377 132.0
15.326385508 165.0
15.378906638 184.0
15.431427769 308.0
15.483948900 522.0
15.536470030 792.0
15.588991161 928.0
15.641512292 766.0
15.694033422 391.0
15.746554553 145.0
15.799075684 96.0
15.851596815 96.0
15.904117945 113.0
15.956639076 102.0
16.009160207 88.0
16.061681337 85.0
16.114202468 78.0
16.166723599 101.0
16.219244730 115.0
16.271765860 158.0
16.324286991 254.0
16.376808122 386.0
16.429329252 366.0
16.481850383 323.0
16.534371514 172.0
16.586892644 186.0
16.639413775 220.0
16.691934906 395.0
16.744456037 672.0
16.796977167 791.0
16.849498298 1038.0
16.902019429 495.0
16.954540559 150.0
17.007061690 87.0
17.059582821 91.0
17.112103951 80.0
17.164625082 63.0
17.217146213 67.0
17.269667344 73.0
17.322188474 65.0
17.374709605 77.0
17.427230736 88.0
17.479751866 76.0
17.532272997 66.0
17.584794128 74.0
17.637315259 79.0
17.689836389 91.0
17.742357520 88.0
17.794878651 86.0
17.847399781 81.0
17.899920912 94.0
17.952442043 97.0
18.004963173 107.0
18.057484304 140.0
18.110005435 170.0
18.162526566 273.0
18.215047696 352.0
18.267568827 360.0
18.320089958 222.0
18.372611088 142.0
18.425132219 105.0
18.477653350 88.0
18.530174481 117.0
18.582695611 137.0
18.635216742 214.0
18.687737873 346.0
18.740259003 651.0
18.792780134 1347.0
18.845301265 2698.0
18.897822395 4472.0
18.950343526 4728.0
19.002864657 3040.0
19.055385788 918.0
19.107906918 267.0
19.160428049 130.0
19.212949180 97.0
19.265470310 110.0
19.317991441 111.0
19.370512572 141.0
19.423033702 254.0
19.475554833 395.0
19.528075964 856.0
19.580597095 1554.0
19.633118225 2729.0
19.685639356 4358.0
19.738160487 3332.0
19.790681617 1331.0
19.843202748 298.0
19.895723879 88.0
19.948245010 90.0
20.000766140 102.0
20.053287271 96.0
20.105808402 93.0
20.158329532 93.0
20.210850663 122.0
20.263371794 159.0
20.315892924 309.0
20.368414055 499.0
20.420935186 766.0
20.473456317 901.0
20.525977447 686.0
20.578498578 326.0
20.631019709 141.0
20.683540839 168.0
20.736061970 257.0
20.788583101 532.0
20.841104232 816.0
20.893625362 1234.0
20.946146493 1252.0
20.998667624 791.0
21.051188754 277.0
21.103709885 113.0
21.156231016 92.0
21.208752146 77.0
21.261273277 78.0
21.313794408 97.0
21.366315539 94.0
21.418836669 93.0
21.471357800 69.0
21.523878931 74.0
21.576400061 80.0
21.628921192 78.0
21.681442323 81.0
21.733963453 81.0
21.786484584 94.0
21.839005715 101.0
21.891526846 149.0
21.944047976 251.0
21.996569107 411.0
22.049090238 675.0
22.101611368 1059.0
22.154132499 1175.0
22.206653630 831.0
22.259174761 329.0
22.311695891 124.0
22.364217022 118.0
22.416738153 144.0
22.469259283 206.0
22.521780414 341.0
22.574301545 555.0
22.626822675 581.0
22.679343806 473.0
22.731864937 198.0
22.784386068 106.0
22.836907198 77.0
22.889428329 58.0
22.941949460 86.0
22.994470590 84.0
23.046991721 94.0
23.099512852 87.0
23.152033983 101.0
23.204555113 104.0
23.257076244 108.0
23.309597375 83.0
23.362118505 105.0
23.414639636 119.0
23.467160767 182.0
23.519681897 375.0
23.572203028 535.0
23.624724159 695.0
23.677245290 608.0
23.729766420 343.0
23.782287551 129.0
23.834808682 77.0
23.887329812 90.0
23.939850943 77.0
23.992372074 83.0
24.044893204 119.0
24.097414335 176.0
24.149935466 219.0
24.202456597 252.0
24.254977727 261.0
24.307498858 150.0
24.360019989 95.0
24.412541119 74.0
24.465062250 87.0
24.517583381 125.0
24.570104512 171.0
24.622625642 313.0
24.675146773 832.0
24.727667904 1968.0
24.780189034 3985.0
24.832710165 5310.0
24.885231296 4479.0
24.937752426 2531.0
24.990273557 711.0
25.042794688 241.0
25.095315819 428.0
25.147836949 1277.0
25.200358080 2418.0
25.252879211 2760.0
25.305400341 5161.0
25.357921472 2977.0
25.410442603 1153.0
25.462963733 280.0
25.515484864 128.0
25.568005995 99.0
25.620527126 135.0
25.673048256 157.0
25.725569387 172.0
25.778090518 181.0
25.830611648 177.0
25.883132779 168.0
25.935653910 247.0
25.988175041 220.0
26.040696171 220.0
26.093217302 155.0
26.145738433 103.0
26.198259563 98.0
26.250780694 90.0
26.303301825 76.0
26.355822955 103.0
26.408344086 152.0
26.460865217 276.0
26.513386348 371.0
26.565907478 539.0
26.618428609 425.0
26.670949740 211.0
26.723470870 136.0
26.775992001 93.0
26.828513132 101.0
26.881034263 88.0
26.933555393 83.0
26.986076524 83.0
27.038597655 87.0
27.091118785 75.0
27.143639916 88.0
27.196161047 135.0
27.248682177 213.0
27.301203308 236.0
27.353724439 290.0
27.406245570 397.0
27.458766700 389.0
27.511287831 363.0
27.563808962 293.0
27.616330092 256.0
27.668851223 250.0
27.721372354 283.0
27.773893484 314.0
27.826414615 229.0
27.878935746 127.0
27.931456877 82.0
27.983978007 73.0
28.036499138 67.0
28.089020269 57.0
28.141541399 81.0
28.194062530 60.0
28.246583661 73.0
28.299104792 82.0
28.351625922 75.0
28.404147053 72.0
28.456668184 85.0
28.509189314 110.0
28.561710445 143.0
28.614231576 245.0
28.666752706 363.0
28.719273837 427.0
28.771794968 453.0
28.824316099 307.0
28.876837229 123.0
28.929358360 91.0
28.981879491 53.0
29.034400621 89.0
29.086921752 68.0
29.139442883 72.0
29.191964014 77.0
29.244485144 65.0
29.297006275 76.0
29.349527406 52.0
29.402048536 79.0
29.454569667 80.0
29.507090798 68.0
29.559611928 70.0
29.612133059 82.0
29.664654190 82.0
29.717175321 69.0
29.769696451 65.0
29.822217582 66.0
29.874738713 77.0
29.927259843 73.0
29.979780974 77.0
30.032302105 80.0
30.084823235 60.0
30.137344366 78.0
30.189865497 66.0
30.242386628 73.0
30.294907758 103.0
30.347428889 109.0
30.399950020 86.0
30.452471150 74.0
30.504992281 143.0
30.557513412 216.0
30.610034543 261.0
30.662555673 330.0
30.715076804 225.0
30.767597935 127.0
30.820119065 86.0
30.872640196 134.0
30.925161327 309.0
30.977682457 559.0
31.030203588 944.0
31.082724719 1250.0
31.135245850 993.0
31.187766980 516.0
31.240288111 189.0
31.292809242 198.0
31.345330372 260.0
31.397851503 287.0
31.450372634 212.0
31.502893765 136.0
31.555414895 83.0
31.607936026 87.0
31.660457157 87.0
31.712978287 68.0
31.765499418 89.0
31.818020549 119.0
31.870541679 258.0
31.923062810 487.0
31.975583941 791.0
32.028105072 1025.0
32.080626202 840.0
32.133147333 505.0
32.185668464 196.0
32.238189594 187.0
32.290710725 199.0
32.343231856 206.0
32.395752986 144.0
32.448274117 79.0
32.500795248 104.0
32.553316379 129.0
32.605837509 316.0
32.658358640 385.0
32.710879771 545.0
32.763400901 441.0
32.815922032 272.0
32.868443163 126.0
32.920964294 120.0
32.973485424 111.0
33.026006555 178.0
33.078527686 221.0
33.131048816 230.0
33.183569947 168.0
33.236091078 102.0
33.288612208 93.0
33.341133339 120.0
33.393654470 181.0
33.446175601 301.0
33.498696731 392.0
33.551217862 420.0
33.603738993 348.0
33.656260123 166.0
33.708781254 146.0
33.761302385 202.0
33.813823516 180.0
33.866344646 155.0
33.918865777 166.0
33.971386908 167.0
34.023908038 120.0
34.076429169 81.0
34.128950300 69.0
34.181471430 83.0
34.233992561 66.0
34.286513692 59.0
34.339034823 73.0
34.391555953 79.0
34.444077084 76.0
34.496598215 80.0
34.549119345 82.0
34.601640476 104.0
34.654161607 144.0
34.706682737 185.0
34.759203868 224.0
34.811724999 236.0
34.864246130 246.0
34.916767260 324.0
34.969288391 231.0
35.021809522 114.0
35.074330652 72.0
35.126851783 94.0
35.179372914 93.0
35.231894045 125.0
35.284415175 157.0
35.336936306 184.0
35.389457437 159.0
35.441978567 141.0
35.494499698 158.0
35.547020829 225.0
35.599541959 255.0
35.652063090 282.0
35.704584221 242.0
35.757105352 213.0
35.809626482 159.0
35.862147613 185.0
35.914668744 201.0
35.967189874 223.0
36.019711005 214.0
36.072232136 193.0
36.124753267 202.0
36.177274397 283.0
36.229795528 390.0
36.282316659 440.0
36.334837789 293.0
36.387358920 160.0
36.439880051 89.0
36.492401181 75.0
36.544922312 79.0
36.597443443 96.0
36.649964574 106.0
36.702485704 144.0
36.755006835 196.0
36.807527966 233.0
36.860049096 230.0
36.912570227 207.0
36.965091358 224.0
37.017612488 275.0
37.070133619 314.0
37.122654750 195.0
37.175175881 105.0
37.227697011 121.0
37.280218142 251.0
37.332739273 399.0
37.385260403 442.0
37.437781534 433.0
37.490302665 336.0
37.542823796 140.0
37.595344926 85.0
37.647866057 73.0
37.700387188 70.0
37.752908318 86.0
37.805429449 73.0
37.857950580 83.0
37.910471710 74.0
37.962992841 80.0
38.015513972 68.0
38.068035103 79.0
38.120556233 90.0
38.173077364 160.0
38.225598495 382.0
38.278119625 566.0
38.330640756 882.0
38.383161887 1114.0
38.435683018 869.0
38.488204148 828.0
38.540725279 859.0
38.593246410 701.0
38.645767540 336.0
38.698288671 154.0
38.750809802 88.0
38.803330932 141.0
38.855852063 190.0
38.908373194 265.0
38.960894325 290.0
39.013415455 336.0
39.065936586 308.0
39.118457717 241.0
39.170978847 236.0
39.223499978 239.0
39.276021109 191.0
39.328542239 186.0
39.381063370 212.0
39.433584501 169.0
39.486105632 93.0
39.538626762 77.0
39.591147893 86.0
39.643669024 66.0
39.696190154 79.0
39.748711285 128.0
39.801232416 242.0
39.853753547 410.0
39.906274677 584.0
39.958795808 617.0
40.011316939 590.0
40.063838069 576.0
40.116359200 447.0
40.168880331 237.0
40.221401461 219.0
40.273922592 309.0
40.326443723 362.0
40.378964854 421.0
40.431485984 426.0
40.484007115 371.0
40.536528246 254.0
40.589049376 197.0
40.641570507 164.0
40.694091638 121.0
40.746612769 98.0
40.799133899 70.0
40.851655030 52.0
40.904176161 66.0
40.956697291 69.0
41.009218422 58.0
41.061739553 80.0
41.114260683 97.0
41.166781814 150.0
41.219302945 201.0
41.271824076 242.0
41.324345206 276.0
41.376866337 179.0
41.429387468 142.0
41.481908598 155.0
41.534429729 189.0
41.586950860 264.0
41.639471990 301.0
41.691993121 310.0
41.744514252 213.0
41.797035383 109.0
41.849556513 73.0
41.902077644 67.0
41.954598775 69.0
42.007119905 49.0
42.059641036 59.0
42.112162167 58.0
42.164683298 62.0
42.217204428 58.0
42.269725559 78.0
42.322246690 79.0
42.374767820 86.0
42.427288951 94.0
42.479810082 93.0
42.532331212 96.0
42.584852343 78.0
42.637373474 77.0
42.689894605 76.0
42.742415735 76.0
42.794936866 46.0
42.847457997 59.0
42.899979127 80.0
42.952500258 101.0
43.005021389 86.0
43.057542520 124.0
43.110063650 98.0
43.162584781 108.0
43.215105912 120.0
43.267627042 103.0
43.320148173 103.0
43.372669304 105.0
43.425190434 75.0
43.477711565 123.0
43.530232696 209.0
43.582753827 300.0
43.635274957 377.0
43.687796088 283.0
43.740317219 220.0
43.792838349 224.0
43.845359480 179.0
43.897880611 240.0
43.950401741 306.0
44.002922872 315.0
44.055444003 246.0
44.107965134 133.0
44.160486264 73.0
44.213007395 75.0
44.265528526 67.0
44.318049656 81.0
44.370570787 99.0
44.423091918 109.0
44.475613049 77.0
44.528134179 82.0
44.580655310 94.0
44.633176441 78.0
44.685697571 103.0
44.738218702 127.0
44.790739833 82.0
44.843260963 73.0
44.895782094 70.0
44.948303225 82.0
45.000824356 79.0
45.053345486 85.0
45.105866617 76.0
45.158387748 59.0
45.210908878 67.0
45.263430009 70.0
45.315951140 96.0
45.368472271 91.0
45.420993401 78.0
45.473514532 81.0
45.526035663 75.0
45.578556793 76.0
45.631077924 62.0
45.683599055 93.0
45.736120185 81.0
45.788641316 61.0
45.841162447 60.0
45.893683578 66.0
45.946204708 103.0
45.998725839 93.0
46.051246970 149.0
46.103768100 133.0
46.156289231 135.0
46.208810362 104.0
46.261331492 74.0
46.313852623 95.0
46.366373754 141.0
46.418894885 200.0
46.471416015 234.0
46.523937146 207.0
46.576458277 120.0
46.628979407 82.0
46.681500538 103.0
46.734021669 133.0
46.786542800 163.0
46.839063930 175.0
46.891585061 150.0
46.944106192 126.0
46.996627322 125.0
47.049148453 195.0
47.101669584 240.0
47.154190714 216.0
47.206711845 221.0
47.259232976 233.0
47.311754107 208.0
47.364275237 176.0
47.416796368 118.0
47.469317499 73.0
47.521838629 66.0
47.574359760 63.0
47.626880891 98.0
47.679402022 181.0
47.731923152 284.0
47.784444283 374.0
47.836965414 294.0
47.889486544 185.0
47.942007675 152.0
47.994528806 131.0
48.047049936 138.0
48.099571067 158.0
48.152092198 150.0
48.204613329 192.0
48.257134459 208.0
48.309655590 194.0
48.362176721 189.0
48.414697851 120.0
48.467218982 65.0
48.519740113 65.0
48.572261243 80.0
48.624782374 120.0
48.677303505 146.0
48.729824636 176.0
48.782345766 127.0
48.834866897 98.0
48.887388028 74.0
48.939909158 93.0
48.992430289 110.0
49.044951420 143.0
49.097472551 144.0
49.149993681 143.0
49.202514812 165.0
49.255035943 174.0
49.307557073 181.0
49.360078204 151.0
49.412599335 86.0
49.465120465 96.0
49.517641596 75.0
49.570162727 57.0
49.622683858 60.0
49.675204988 61.0
49.727726119 50.0
49.780247250 64.0
49.832768380 67.0
49.885289511 61.0
49.937810642 83.0
49.990331772 107.0
50.042852903 162.0
50.095374034 186.0
50.147895165 127.0
50.200416295 106.0
50.252937426 72.0
50.305458557 76.0
50.357979687 89.0
50.410500818 120.0
50.463021949 192.0
50.515543080 212.0
50.568064210 164.0
50.620585341 94.0
50.673106472 114.0
50.725627602 174.0
50.778148733 221.0
50.830669864 280.0
50.883190994 275.0
50.935712125 188.0
50.988233256 100.0
51.040754387 75.0
51.093275517 52.0
51.145796648 50.0
51.198317779 50.0
51.250838909 70.0
51.303360040 47.0
51.355881171 55.0
51.408402302 47.0
51.460923432 52.0
51.513444563 58.0
51.565965694 74.0
51.618486824 65.0
51.671007955 79.0
51.723529086 151.0
51.776050216 218.0
51.828571347 133.0
51.881092478 99.0
51.933613609 92.0
51.986134739 85.0
52.038655870 94.0
52.091177001 115.0
52.143698131 140.0
52.196219262 124.0
52.248740393 109.0
52.301261523 96.0
52.353782654 75.0
52.406303785 74.0
52.458824916 52.0
52.511346046 42.0
52.563867177 42.0
52.616388308 60.0
52.668909438 65.0
52.721430569 81.0
52.773951700 127.0
52.826472831 159.0
52.878993961 134.0
52.931515092 100.0
52.984036223 70.0
53.036557353 49.0
53.089078484 64.0
53.141599615 59.0
53.194120745 57.0
53.246641876 86.0
53.299163007 102.0
53.351684138 87.0
53.404205268 80.0
53.456726399 71.0
53.509247530 57.0
53.561768660 75.0
53.614289791 67.0
53.666810922 52.0
53.719332053 50.0
53.771853183 101.0
53.824374314 131.0
53.876895445 204.0
53.929416575 180.0
53.981937706 157.0
54.034458837 141.0
54.086979967 212.0
54.139501098 273.0
54.192022229 323.0
54.244543360 318.0
54.297064490 207.0
54.349585621 109.0
54.402106752 96.0
54.454627882 81.0
54.507149013 73.0
54.559670144 60.0
54.612191274 57.0
54.664712405 66.0
54.717233536 60.0
54.769754667 67.0
54.822275797 102.0
54.874796928 95.0
54.927318059 108.0
54.979839189 111.0
55.032360320 97.0
55.084881451 74.0
55.137402582 70.0
55.189923712 102.0
55.242444843 98.0
55.294965974 89.0
55.347487104 121.0
55.400008235 122.0
55.452529366 134.0
55.505050496 110.0
55.557571627 77.0
55.610092758 83.0
55.662613889 70.0
55.715135019 60.0
55.767656150 70.0
55.820177281 67.0
55.872698411 80.0
55.925219542 72.0
55.977740673 68.0
56.030261804 57.0
56.082782934 126.0
56.135304065 133.0
56.187825196 179.0
56.240346326 178.0
56.292867457 117.0
56.345388588 87.0
56.397909718 72.0
56.450430849 64.0
56.502951980 89.0
56.555473111 67.0
56.607994241 75.0
56.660515372 70.0
56.713036503 68.0
56.765557633 81.0
56.818078764 68.0
56.870599895 67.0
56.923121025 58.0
56.975642156 29.0
57.028163287 48.0
57.080684418 46.0
57.133205548 54.0
57.185726679 44.0
57.238247810 59.0
57.290768940 85.0
57.343290071 85.0
57.395811202 70.0
57.448332333 78.0
57.500853463 54.0
57.553374594 80.0
57.605895725 80.0
57.658416855 80.0
57.710937986 59.0
57.763459117 75.0
57.815980247 75.0
57.868501378 101.0
57.921022509 101.0
57.973543640 59.0
58.026064770 63.0
58.078585901 51.0
58.131107032 80.0
58.183628162 92.0
58.236149293 89.0
58.288670424 103.0
58.341191555 81.0
58.393712685 75.0
58.446233816 61.0
58.498754947 51.0
58.551276077 53.0
58.603797208 74.0
58.656318339 60.0
58.708839469 62.0
58.761360600 63.0
58.813881731 46.0
58.866402862 51.0
58.918923992 56.0
58.971445123 50.0
59.023966254 55.0
59.076487384 49.0
59.129008515 77.0
59.181529646 104.0
59.234050776 79.0
59.286571907 91.0
59.339093038 74.0
59.391614169 75.0
59.444135299 84.0
59.496656430 76.0
59.549177561 53.0
59.601698691 41.0
59.654219822 45.0
59.706740953 38.0
59.759262084 48.0
59.811783214 41.0
59.864304345 34.0
59.916825476 63.0
59.969346606 71.0
60.021867737 52.0
60.074388868 48.0
60.126909998 36.0
60.179431129 47.0
60.231952260 55.0
60.284473391 68.0
60.336994521 59.0
60.389515652 58.0
60.442036783 59.0
60.494557913 49.0
60.547079044 74.0
60.599600175 101.0
60.652121306 103.0
60.704642436 118.0
60.757163567 82.0
60.809684698 62.0
60.862205828 60.0
60.914726959 54.0
60.967248090 54.0
61.019769220 56.0
61.072290351 51.0
61.124811482 45.0
61.177332613 44.0
61.229853743 38.0
61.282374874 55.0
61.334896005 48.0
61.387417135 52.0
61.439938266 52.0
61.492459397 51.0
61.544980527 64.0
61.597501658 86.0
61.650022789 115.0
61.702543920 112.0
61.755065050 101.0
61.807586181 71.0
61.860107312 73.0
61.912628442 62.0
61.965149573 64.0
62.017670704 78.0
62.070191835 76.0
62.122712965 42.0
62.175234096 52.0
62.227755227 45.0
62.280276357 47.0
62.332797488 45.0
62.385318619 48.0
62.437839749 42.0
62.490360880 42.0
62.542882011 37.0
62.595403142 41.0
62.647924272 47.0
62.700445403 52.0
62.752966534 59.0
62.805487664 64.0
62.858008795 85.0
62.910529926 109.0
62.963051057 83.0
63.015572187 64.0
63.068093318 39.0
63.120614449 51.0
63.173135579 38.0
63.225656710 51.0
63.278177841 51.0
63.330698971 34.0
63.383220102 40.0
63.435741233 55.0
63.488262364 61.0
63.540783494 90.0
63.593304625 120.0
63.645825756 171.0
63.698346886 157.0
63.750868017 115.0
63.803389148 98.0
63.855910278 77.0
63.908431409 83.0
63.960952540 77.0
64.013473671 79.0
64.065994801 92.0
64.118515932 61.0
64.171037063 73.0
64.223558193 57.0
64.276079324 67.0
64.328600455 62.0
64.381121586 67.0
64.433642716 76.0
64.486163847 89.0
64.538684978 79.0
64.591206108 68.0
64.643727239 57.0
64.696248370 59.0
64.748769500 50.0
64.801290631 47.0
64.853811762 47.0
64.906332893 43.0
64.958854023 72.0
65.011375154 49.0
65.063896285 73.0
65.116417415 75.0
65.168938546 76.0
65.221459677 90.0
65.273980808 93.0
65.326501938 91.0
65.379023069 91.0
65.431544200 73.0
65.484065330 58.0
65.536586461 65.0
65.589107592 47.0
65.641628722 49.0
65.694149853 64.0
65.746670984 48.0
65.799192115 78.0
65.851713245 80.0
65.904234376 99.0
65.956755507 117.0
66.009276637 68.0
66.061797768 58.0
66.114318899 54.0
66.166840029 48.0
66.219361160 46.0
66.271882291 49.0
66.324403422 41.0
66.376924552 47.0
66.429445683 42.0
66.481966814 52.0
66.534487944 59.0
66.587009075 78.0
66.639530206 68.0
66.692051337 59.0
66.744572467 80.0
66.797093598 88.0
66.849614729 76.0
66.902135859 71.0
66.954656990 58.0
67.007178121 58.0
67.059699251 61.0
67.112220382 42.0
67.164741513 54.0
67.217262644 49.0
67.269783774 51.0
67.322304905 51.0
67.374826036 54.0
67.427347166 57.0
67.479868297 38.0
67.532389428 42.0
67.584910559 52.0
67.637431689 50.0
67.689952820 53.0
67.742473951 42.0
67.794995081 32.0
67.847516212 52.0
67.900037343 31.0
67.952558473 47.0
68.005079604 44.0
68.057600735 39.0
68.110121866 42.0
68.162642996 59.0
68.215164127 47.0
68.267685258 35.0
68.320206388 39.0
68.372727519 43.0
68.425248650 32.0
68.477769780 53.0
68.530290911 51.0
68.582812042 52.0
68.635333173 50.0
68.687854303 51.0
68.740375434 51.0
68.792896565 51.0
68.845417695 48.0
68.897938826 55.0
68.950459957 38.0
69.002981088 61.0
69.055502218 52.0
69.108023349 56.0
69.160544480 55.0
69.213065610 67.0
69.265586741 60.0
69.318107872 77.0
69.370629002 63.0
69.423150133 61.0
69.475671264 56.0
69.528192395 58.0
69.580713525 40.0
69.633234656 47.0
69.685755787 42.0
69.738276917 40.0
69.790798048 47.0
69.843319179 54.0
69.895840310 49.0
69.948361440 52.0
70.000882571 49.0
70.053403702 72.0
70.105924832 68.0
70.158445963 79.0
70.210967094 83.0
70.263488224 74.0
70.316009355 61.0
70.368530486 60.0
70.421051617 55.0
70.473572747 57.0
70.526093878 50.0
70.578615009 42.0
70.631136139 49.0
70.683657270 54.0
70.736178401 51.0
70.788699531 85.0
70.841220662 79.0
70.893741793 71.0
70.946262924 64.0
70.998784054 48.0
71.051305185 56.0
71.103826316 57.0
71.156347446 58.0
71.208868577 59.0
71.261389708 63.0
71.313910839 62.0
71.366431969 86.0
71.418953100 92.0
71.471474231 60.0
71.523995361 41.0
71.576516492 42.0
71.629037623 50.0
71.681558753 41.0
71.734079884 43.0
71.786601015 43.0
71.839122146 32.0
71.891643276 37.0
71.944164407 49.0
71.996685538 71.0
72.049206668 68.0
72.101727799 76.0
72.154248930 92.0
72.206770060 82.0
72.259291191 73.0
72.311812322 76.0
72.364333453 73.0
72.416854583 61.0
72.469375714 62.0
72.521896845 54.0
72.574417975 36.0
72.626939106 50.0
72.679460237 43.0
72.731981368 46.0
72.784502498 58.0
72.837023629 63.0
72.889544760 60.0
72.942065890 64.0
72.994587021 62.0
73.047108152 75.0
73.099629282 74.0
73.152150413 77.0
73.204671544 67.0
73.257192675 54.0
73.309713805 48.0
73.362234936 43.0
73.414756067 49.0
73.467277197 60.0
73.519798328 52.0
73.572319459 56.0
73.624840590 64.0
73.677361720 47.0
73.729882851 55.0
73.782403982 49.0
73.834925112 41.0
73.887446243 40.0
73.939967374 51.0
73.992488504 34.0
74.045009635 57.0
74.097530766 55.0
74.150051897 50.0
74.202573027 54.0
74.255094158 54.0
74.307615289 63.0
74.360136419 56.0
74.412657550 69.0
74.465178681 51.0
74.517699811 60.0
74.570220942 57.0
74.622742073 58.0
74.675263204 44.0
74.727784334 45.0
74.780305465 51.0
74.832826596 56.0
74.885347726 72.0
74.937868857 73.0
74.990389988 59.0
75.042911119 67.0
75.095432249 50.0
75.147953380 52.0
75.200474511 78.0
75.252995641 77.0
75.305516772 56.0
75.358037903 62.0
75.410559033 66.0
75.463080164 68.0
75.515601295 85.0
75.568122426 70.0
75.620643556 65.0
75.673164687 58.0
75.725685818 62.0
75.778206948 47.0
75.830728079 48.0
75.883249210 49.0
75.935770341 68.0
75.988291471 60.0
76.040812602 71.0
76.093333733 56.0
76.145854863 47.0
76.198375994 52.0
76.250897125 54.0
76.303418255 89.0
76.355939386 94.0
76.408460517 65.0
76.460981648 68.0
76.513502778 63.0
76.566023909 61.0
76.618545040 59.0
76.671066170 58.0
76.723587301 44.0
76.776108432 50.0
76.828629562 57.0
76.881150693 51.0
76.933671824 37.0
76.986192955 65.0
77.038714085 36.0
77.091235216 46.0
77.143756347 52.0
77.196277477 48.0
77.248798608 51.0
77.301319739 58.0
77.353840870 41.0
77.406362000 44.0
77.458883131 43.0
77.511404262 39.0
77.563925392 42.0
77.616446523 73.0
77.668967654 60.0
77.721488784 58.0
77.774009915 59.0
77.826531046 54.0
77.879052177 53.0
77.931573307 44.0
77.984094438 61.0
78.036615569 60.0
78.089136699 66.0
78.141657830 71.0
78.194178961 45.0
78.246700092 45.0
78.299221222 54.0
78.351742353 56.0
78.404263484 57.0
78.456784614 47.0
78.509305745 38.0
78.561826876 44.0
78.614348006 48.0
78.666869137 46.0
78.719390268 54.0
78.771911399 71.0
78.824432529 72.0
78.876953660 58.0
78.929474791 57.0
78.981995921 49.0
79.034517052 50.0
79.087038183 51.0
79.139559313 39.0
79.192080444 52.0
79.244601575 57.0
79.297122706 72.0
79.349643836 64.0
79.402164967 56.0
79.454686098 69.0
79.507207228 83.0
79.559728359 86.0
79.612249490 88.0
79.664770621 77.0
79.717291751 85.0
79.769812882 69.0
79.822334013 58.0
79.874855143 47.0
79.927376274 42.0
79.979897405 49.0
80.032418535 39.0
80.084939666 51.0
80.137460797 62.0
80.189981928 45.0
80.242503058 49.0
80.295024189 44.0
80.347545320 60.0
80.400066450 48.0
80.452587581 50.0
80.505108712 72.0
80.557629843 81.0
80.610150973 97.0
80.662672104 107.0
80.715193235 83.0
80.767714365 59.0
80.820235496 54.0
80.872756627 48.0
80.925277757 45.0
80.977798888 48.0
81.030320019 60.0
81.082841150 45.0
81.135362280 49.0
81.187883411 44.0
81.240404542 51.0
81.292925672 54.0
81.345446803 49.0
81.397967934 52.0
81.450489064 60.0
81.503010195 46.0
81.555531326 38.0
81.608052457 43.0
81.660573587 45.0
81.713094718 58.0
81.765615849 53.0
81.818136979 50.0
81.870658110 49.0
81.923179241 58.0
81.975700372 56.0
82.028221502 51.0
82.080742633 41.0
82.133263764 54.0
82.185784894 49.0
82.238306025 42.0
82.290827156 42.0
82.343348286 61.0
82.395869417 51.0
82.448390548 60.0
82.500911679 52.0
82.553432809 46.0
82.605953940 50.0
82.658475071 73.0
82.710996201 57.0
82.763517332 73.0
82.816038463 74.0
82.868559594 93.0
82.921080724 61.0
82.973601855 48.0
83.026122986 48.0
83.078644116 35.0
83.131165247 42.0
83.183686378 56.0
83.236207508 57.0
83.288728639 49.0
83.341249770 49.0
83.393770901 51.0
83.446292031 57.0
83.498813162 47.0
83.551334293 41.0
83.603855423 51.0
83.656376554 47.0
83.708897685 53.0
83.761418815 38.0
83.813939946 52.0
83.866461077 63.0
83.918982208 40.0
83.971503338 42.0
84.024024469 29.0
84.076545600 36.0
84.129066730 32.0
84.181587861 34.0
84.234108992 48.0
84.286630123 41.0
84.339151253 43.0
84.391672384 28.0
84.444193515 51.0
84.496714645 56.0
84.549235776 55.0
84.601756907 73.0
84.654278037 65.0
84.706799168 54.0
84.759320299 50.0
84.811841430 41.0
84.864362560 43.0
84.916883691 55.0
84.969404822 29.0
85.021925952 41.0
85.074447083 33.0
85.126968214 49.0
85.179489345 40.0
85.232010475 39.0
85.284531606 31.0
85.337052737 31.0
85.389573867 41.0
85.442094998 43.0
85.494616129 34.0
85.547137259 34.0
85.599658390 36.0
85.652179521 32.0
85.704700652 44.0
85.757221782 26.0
85.809742913 46.0
85.862264044 44.0
85.914785174 58.0
85.967306305 57.0
86.019827436 48.0
86.072348566 50.0
86.124869697 58.0
86.177390828 45.0
86.229911959 56.0
86.282433089 43.0
86.334954220 42.0
86.387475351 47.0
86.439996481 56.0
86.492517612 43.0
86.545038743 55.0
86.597559874 51.0
86.650081004 31.0
86.702602135 52.0
86.755123266 51.0
86.807644396 66.0
86.860165527 63.0
86.912686658 102.0
86.965207788 109.0
87.017728919 70.0
87.070250050 70.0
87.122771181 45.0
87.175292311 63.0
87.227813442 62.0
87.280334573 53.0
87.332855703 71.0
87.385376834 58.0
87.437897965 54.0
87.490419096 70.0
87.542940226 53.0
87.595461357 51.0
87.647982488 53.0
87.700503618 62.0
87.753024749 59.0
87.805545880 59.0
87.858067010 51.0
87.910588141 52.0
87.963109272 28.0
88.015630403 39.0
88.068151533 60.0
88.120672664 64.0
88.173193795 36.0
88.225714925 40.0
88.278236056 32.0
88.330757187 31.0
88.383278317 52.0
88.435799448 42.0
88.488320579 38.0
88.540841710 39.0
88.593362840 36.0
88.645883971 43.0
88.698405102 41.0
88.750926232 51.0
88.803447363 48.0
88.855968494 45.0
88.908489625 37.0
88.961010755 54.0
89.013531886 59.0
89.066053017 49.0
89.118574147 41.0
89.171095278 46.0
89.223616409 39.0
89.276137539 39.0
89.328658670 40.0
89.381179801 41.0
89.433700932 50.0
89.486222062 56.0
89.538743193 37.0
89.591264324 39.0
89.643785454 36.0
89.696306585 36.0
89.748827716 35.0
89.801348847 35.0
89.853869977 51.0
89.906391108 61.0
89.958912239 63.0
90.011433369 52.0
90.063954500 43.0
90.116475631 61.0
90.168996761 36.0
90.221517892 45.0
90.274039023 38.0
90.326560154 44.0
90.379081284 38.0
90.431602415 34.0
90.484123546 40.0
90.536644676 46.0
90.589165807 50.0
90.641686938 37.0
90.694208068 53.0
90.746729199 63.0
90.799250330 52.0
90.851771461 50.0
90.904292591 58.0
90.956813722 38.0
91.009334853 37.0
91.061855983 38.0
91.114377114 39.0
91.166898245 36.0
91.219419376 46.0
91.271940506 39.0
91.324461637 33.0
91.376982768 50.0
91.429503898 46.0
91.482025029 38.0
91.534546160 56.0
91.587067290 61.0
91.639588421 65.0
91.692109552 78.0
91.744630683 55.0
91.797151813 41.0
91.849672944 43.0
91.902194075 39.0
91.954715205 36.0
92.007236336 36.0
92.059757467 30.0
92.112278598 34.0
92.164799728 33.0
92.217320859 46.0
92.269841990 35.0
92.322363120 29.0
92.374884251 38.0
92.427405382 32.0
92.479926512 41.0
92.532447643 41.0
92.584968774 34.0
92.637489905 43.0
92.690011035 35.0
92.742532166 31.0
92.795053297 45.0
92.847574427 38.0
92.900095558 31.0
92.952616689 36.0
93.005137819 47.0
93.057658950 46.0
93.110180081 32.0
93.162701212 32.0
93.215222342 60.0
93.267743473 44.0
93.320264604 51.0
93.372785734 36.0
93.425306865 41.0
93.477827996 42.0
93.530349127 44.0
93.582870257 58.0
93.635391388 33.0
93.687912519 31.0
93.740433649 36.0
93.792954780 38.0
93.845475911 23.0
93.897997041 40.0
93.950518172 30.0
94.003039303 30.0
94.055560434 38.0
94.108081564 68.0
94.160602695 51.0
94.213123826 49.0
94.265644956 52.0
94.318166087 49.0
94.370687218 39.0
94.423208348 38.0
94.475729479 45.0
94.528250610 51.0
94.580771741 33.0
94.633292871 43.0
94.685814002 33.0
94.738335133 44.0
94.790856263 42.0
94.843377394 37.0
94.895898525 42.0
94.948419656 52.0
95.000940786 51.0
95.053461917 52.0
95.105983048 29.0
95.158504178 39.0
95.211025309 43.0
95.263546440 55.0
95.316067570 68.0
95.368588701 47.0
95.421109832 43.0
95.473630963 43.0
95.526152093 39.0
95.578673224 46.0
95.631194355 39.0
95.683715485 39.0
95.736236616 35.0
95.788757747 41.0
95.841278878 44.0
95.893800008 36.0
95.946321139 45.0
95.998842270 42.0
96.051363400 39.0
96.103884531 45.0
96.156405662 43.0
96.208926792 55.0
96.261447923 50.0
96.313969054 53.0
96.366490185 55.0
96.419011315 27.0
96.471532446 39.0
96.524053577 43.0
96.576574707 43.0
96.629095838 36.0
96.681616969 32.0
96.734138099 42.0
96.786659230 41.0
96.839180361 37.0
96.891701492 36.0
96.944222622 44.0
96.996743753 36.0
97.049264884 42.0
97.101786014 34.0
97.154307145 38.0
97.206828276 37.0
97.259349407 27.0
97.311870537 33.0
97.364391668 39.0
97.416912799 38.0
97.469433929 34.0
97.521955060 34.0
97.574476191 33.0
97.626997321 27.0
97.679518452 35.0
97.732039583 34.0
97.784560714 38.0
97.837081844 57.0
97.889602975 51.0
97.942124106 45.0
97.994645236 59.0
98.047166367 59.0
98.099687498 49.0
98.152208629 41.0
98.204729759 33.0
98.257250890 35.0
98.309772021 26.0
98.362293151 33.0
98.414814282 37.0
98.467335413 37.0
98.519856543 34.0
98.572377674 43.0
98.624898805 49.0
98.677419936 38.0
98.729941066 23.0
98.782462197 30.0
98.834983328 39.0
98.887504458 50.0
98.940025589 36.0
98.992546720 41.0
99.045067850 37.0
99.097588981 24.0
99.150110112 29.0
99.202631243 30.0
99.255152373 39.0
99.307673504 37.0
99.360194635 41.0
99.412715765 39.0
99.465236896 35.0
99.517758027 37.0
99.570279158 46.0
99.622800288 36.0
99.675321419 37.0
99.727842550 30.0
99.780363680 25.0
99.832884811 36.0
99.885405942 34.0
99.937927072 35.0
99.990448203 48.0
100.042969334 37.0
100.095490465 34.0
100.148011595 35.0
100.200532726 40.0
100.253053857 26.0
100.305574987 39.0
100.358096118 38.0
100.410617249 43.0
100.463138380 40.0
100.515659510 36.0
100.568180641 33.0
100.620701772 28.0
100.673222902 32.0
100.725744033 37.0
100.778265164 37.0
100.830786294 31.0
100.883307425 31.0
100.935828556 34.0
100.988349687 34.0
101.040870817 31.0
101.093391948 32.0
101.145913079 39.0
101.198434209 40.0
101.250955340 31.0
101.303476471 35.0
101.355997601 35.0
101.408518732 33.0
101.461039863 32.0
101.513560994 43.0
101.566082124 38.0
101.618603255 32.0
101.671124386 31.0
101.723645516 37.0
101.776166647 33.0
101.828687778 32.0
101.881208909 43.0
101.933730039 31.0
101.986251170 40.0
102.038772301 36.0
102.091293431 47.0
102.143814562 37.0
102.196335693 37.0
102.248856823 35.0
102.301377954 36.0
102.353899085 35.0
102.406420216 43.0
102.458941346 31.0
102.511462477 36.0
102.563983608 45.0
102.616504738 37.0
102.669025869 49.0
102.721547000 37.0
102.774068131 38.0
102.826589261 28.0
102.879110392 24.0
102.931631523 26.0
102.984152653 33.0
103.036673784 34.0
103.089194915 41.0
103.141716045 36.0
103.194237176 31.0
103.246758307 35.0
103.299279438 33.0
103.351800568 26.0
103.404321699 36.0
103.456842830 32.0
103.509363960 37.0
103.561885091 31.0
103.614406222 40.0
103.666927352 36.0
103.719448483 23.0
103.771969614 39.0
103.824490745 25.0
103.877011875 26.0
103.929533006 30.0
103.982054137 29.0
104.034575267 22.0
104.087096398 30.0
104.139617529 31.0
104.192138660 35.0
104.244659790 40.0
104.297180921 31.0
104.349702052 43.0
104.402223182 35.0
104.454744313 34.0
104.507265444 36.0
104.559786574 29.0
104.612307705 36.0
104.664828836 30.0
104.717349967 36.0
104.769871097 31.0
104.822392228 19.0
104.874913359 25.0
104.927434489 24.0
104.979955620 31.0
105.032476751 37.0
105.084997882 43.0
105.137519012 40.0
105.190040143 34.0
105.242561274 45.0
105.295082404 37.0
105.347603535 51.0
105.400124666 32.0
105.452645796 49.0
105.505166927 37.0
105.557688058 47.0
105.610209189 42.0
105.662730319 41.0
105.715251450 37.0
105.767772581 36.0
105.820293711 36.0
105.872814842 54.0
105.925335973 27.0
105.977857103 35.0
106.030378234 35.0
106.082899365 44.0
106.135420496 32.0
106.187941626 31.0
106.240462757 35.0
106.292983888 30.0
106.345505018 36.0
106.398026149 35.0
106.450547280 28.0
106.503068411 26.0
106.555589541 27.0
106.608110672 47.0
106.660631803 34.0
106.713152933 51.0
106.765674064 35.0
106.818195195 27.0
106.870716325 37.0
106.923237456 40.0
106.975758587 32.0
107.028279718 36.0
107.080800848 27.0
107.133321979 28.0
107.185843110 28.0
107.238364240 27.0
107.290885371 41.0
107.343406502 38.0
107.395927633 25.0
107.448448763 36.0
107.500969894 25.0
107.553491025 28.0
107.606012155 36.0
107.658533286 22.0
107.711054417 28.0
107.763575547 32.0
107.816096678 38.0
107.868617809 36.0
107.921138940 23.0
107.973660070 45.0
108.026181201 44.0
108.078702332 37.0
108.131223462 35.0
108.183744593 44.0
108.236265724 40.0
108.288786854 31.0
108.341307985 32.0
108.393829116 27.0
108.446350247 28.0
108.498871377 37.0
108.551392508 40.0
108.603913639 32.0
108.656434769 21.0
108.708955900 44.0
108.761477031 34.0
108.813998162 44.0
108.866519292 35.0
108.919040423 34.0
108.971561554 34.0
109.024082684 30.0
109.076603815 28.0
109.129124946 28.0
109.181646076 35.0
109.234167207 34.0
109.286688338 30.0
109.339209469 38.0
109.391730599 30.0
109.444251730 30.0
109.496772861 34.0
109.549293991 38.0
109.601815122 28.0
109.654336253 29.0
109.706857384 27.0
109.759378514 32.0
109.811899645 28.0
109.864420776 41.0
109.916941906 18.0
109.969463037 31.0
110.021984168 27.0
110.074505298 39.0
110.127026429 29.0
110.179547560 31.0
110.232068691 28.0
110.284589821 42.0
110.337110952 35.0
110.389632083 29.0
110.442153213 25.0
110.494674344 22.0
110.547195475 39.0
110.599716605 26.0
110.652237736 26.0
110.704758867 28.0
110.757279998 29.0
110.809801128 26.0
110.862322259 28.0
110.914843390 33.0
110.967364520 44.0
111.019885651 30.0
111.072406782 38.0
111.124927913 26.0
111.177449043 33.0
111.229970174 30.0
111.282491305 31.0
111.335012435 47.0
111.387533566 29.0
111.440054697 37.0
111.492575827 29.0
111.545096958 20.0
111.597618089 34.0
111.650139220 27.0
111.702660350 29.0
111.755181481 33.0
111.807702612 21.0
111.860223742 35.0
111.912744873 28.0
111.965266004 26.0
112.017787135 30.0
112.070308265 29.0
112.122829396 40.0
112.175350527 28.0
112.227871657 29.0
112.280392788 30.0
112.332913919 17.0
112.385435049 34.0
112.437956180 25.0
112.490477311 35.0
112.542998442 34.0
112.595519572 49.0
112.648040703 33.0
112.700561834 38.0
112.753082964 35.0
112.805604095 27.0
112.858125226 24.0
112.910646356 37.0
112.963167487 46.0
113.015688618 64.0
113.068209749 34.0
113.120730879 48.0
113.173252010 43.0
113.225773141 31.0
113.278294271 36.0
113.330815402 29.0
113.383336533 24.0
113.435857664 49.0
113.488378794 24.0
113.540899925 31.0
113.593421056 31.0
113.645942186 31.0
113.698463317 26.0
113.750984448 26.0
113.803505578 34.0
113.856026709 36.0
113.908547840 31.0
113.961068971 37.0
114.013590101 32.0
114.066111232 31.0
114.118632363 33.0
114.171153493 27.0
114.223674624 31.0
114.276195755 28.0
114.328716886 25.0
114.381238016 28.0
114.433759147 29.0
114.486280278 32.0
114.538801408 39.0
114.591322539 19.0
114.643843670 38.0
114.696364800 33.0
114.748885931 35.0
114.801407062 33.0
114.853928193 30.0
114.906449323 29.0
114.958970454 31.0
115.011491585 30.0
115.064012715 33.0
115.116533846 27.0
115.169054977 34.0
115.221576107 24.0
115.274097238 28.0
115.326618369 29.0
115.379139500 35.0
115.431660630 38.0
115.484181761 45.0
115.536702892 34.0
115.589224022 34.0
115.641745153 35.0
115.694266284 35.0
115.746787415 30.0
115.799308545 31.0
115.851829676 34.0
115.904350807 26.0
115.956871937 28.0
116.009393068 32.0
116.061914199 28.0
116.114435329 30.0
116.166956460 27.0
116.219477591 22.0
116.271998722 29.0
116.324519852 31.0
116.377040983 26.0
116.429562114 30.0
116.482083244 45.0
116.534604375 31.0
116.587125506 24.0
116.639646637 34.0
116.692167767 30.0
116.744688898 36.0
116.797210029 33.0
116.849731159 26.0
116.902252290 32.0
116.954773421 48.0
117.007294551 38.0
117.059815682 30.0
117.112336813 36.0
117.164857944 41.0
117.217379074 31.0
117.269900205 29.0
117.322421336 24.0
117.374942466 36.0
117.427463597 25.0
117.479984728 31.0
117.532505858 22.0
117.585026989 30.0
117.637548120 30.0
117.690069251 35.0
117.742590381 44.0
117.795111512 36.0
117.847632643 24.0
117.900153773 36.0
117.952674904 34.0
118.005196035 31.0
118.057717166 39.0
118.110238296 29.0
118.162759427 34.0
118.215280558 35.0
118.267801688 35.0
118.320322819 30.0
118.372843950 36.0
118.425365080 32.0
118.477886211 39.0
118.530407342 31.0
118.582928473 34.0
118.635449603 21.0
118.687970734 25.0
118.740491865 32.0
118.793012995 29.0
118.845534126 36.0
118.898055257 40.0
118.950576387 38.0
119.003097518 23.0
119.055618649 34.0
119.108139780 30.0
119.160660910 20.0
119.213182041 30.0
119.265703172 39.0
119.318224302 30.0
119.370745433 34.0
119.423266564 29.0
119.475787695 34.0
119.528308825 41.0
119.580829956 35.0
119.633351087 36.0
119.685872217 25.0
119.738393348 34.0
119.790914479 45.0
119.843435609 37.0
119.895956740 31.0
119.948477871 29.0
120.000999002 27.0
120.053520132 27.0
120.106041263 37.0
120.158562394 28.0
120.211083524 23.0
120.263604655 16.0
120.316125786 29.0
120.368646917 41.0
120.421168047 32.0
120.473689178 27.0
120.526210309 21.0
120.578731439 28.0
120.631252570 34.0
120.683773701 19.0
120.736294831 39.0
120.788815962 37.0
120.841337093 28.0
120.893858224 40.0
120.946379354 27.0
120.998900485 35.0
121.051421616 31.0
121.103942746 28.0
121.156463877 26.0
121.208985008 22.0
121.261506138 43.0
121.314027269 25.0
121.366548400 31.0
121.419069531 23.0
121.471590661 32.0
121.524111792 36.0
121.576632923 35.0
121.629154053 42.0
121.681675184 27.0
121.734196315 36.0
121.786717446 27.0
121.839238576 35.0
121.891759707 31.0
121.944280838 31.0
121.996801968 35.0
122.049323099 33.0
122.101844230 31.0
122.154365360 33.0
122.206886491 38.0
122.259407622 40.0
122.311928753 35.0
122.364449883 33.0
122.416971014 31.0
122.469492145 28.0
122.522013275 28.0
122.574534406 24.0
122.627055537 28.0
122.679576668 31.0
122.732097798 28.0
122.784618929 23.0
122.837140060 27.0
122.889661190 23.0
122.942182321 34.0
122.994703452 36.0
123.047224582 36.0
123.099745713 36.0
123.152266844 32.0
123.204787975 22.0
123.257309105 33.0
123.309830236 33.0
123.362351367 24.0
123.414872497 29.0
123.467393628 12.0
123.519914759 29.0
123.572435889 44.0
123.624957020 25.0
123.677478151 18.0
123.729999282 26.0
123.782520412 30.0
123.835041543 25.0
123.887562674 23.0
123.940083804 28.0
123.992604935 20.0
124.045126066 30.0
124.097647197 26.0
124.150168327 27.0
124.202689458 35.0
124.255210589 36.0
124.307731719 33.0
124.360252850 26.0
124.412773981 20.0
124.465295111 35.0
124.517816242 26.0
124.570337373 48.0
124.622858504 32.0
124.675379634 19.0
124.727900765 38.0
124.780421896 23.0
124.832943026 46.0
124.885464157 27.0
124.937985288 24.0
124.990506419 37.0
125.043027549 29.0
125.095548680 30.0
125.148069811 30.0
125.200590941 34.0
125.253112072 36.0
125.305633203 32.0
125.358154333 30.0
125.410675464 34.0
125.463196595 33.0
125.515717726 34.0
125.568238856 44.0
125.620759987 42.0
125.673281118 35.0
125.725802248 29.0
125.778323379 29.0
125.830844510 34.0
125.883365640 38.0
125.935886771 41.0
125.988407902 42.0
126.040929033 26.0
126.093450163 39.0
126.145971294 38.0
126.198492425 29.0
126.251013555 30.0
126.303534686 28.0
126.356055817 39.0
126.408576948 33.0
126.461098078 32.0
126.513619209 36.0
126.566140340 47.0
126.618661470 29.0
126.671182601 30.0
126.723703732 40.0
126.776224862 25.0
126.828745993 29.0
126.881267124 32.0
126.933788255 23.0
126.986309385 29.0
127.038830516 34.0
127.091351647 27.0
127.143872777 25.0
127.196393908 37.0
127.248915039 35.0
127.301436170 26.0
127.353957300 50.0
127.406478431 33.0
127.458999562 35.0
127.511520692 33.0
127.564041823 34.0
127.616562954 45.0
127.669084084 31.0
127.721605215 23.0
127.774126346 51.0
127.826647477 35.0
127.879168607 34.0
127.931689738 24.0
127.984210869 31.0
128.036731999 29.0
128.089253130 38.0
128.141774261 28.0
128.194295391 24.0
128.246816522 39.0
128.299337653 23.0
128.351858784 39.0
128.404379914 33.0
128.456901045 25.0
128.509422176 34.0
128.561943306 33.0
128.614464437 43.0
128.666985568 34.0
128.719506699 38.0
128.772027829 36.0
128.824548960 26.0
128.877070091 37.0
128.929591221 26.0
128.982112352 26.0
129.034633483 27.0
129.087154613 23.0
129.139675744 26.0
129.192196875 24.0
129.244718006 22.0
129.297239136 23.0
129.349760267 34.0
129.402281398 24.0
129.454802528 31.0
129.507323659 35.0
129.559844790 27.0
129.612365921 35.0
129.664887051 33.0
129.717408182 25.0
129.769929313 38.0
129.822450443 42.0
129.874971574 34.0
129.927492705 31.0
129.980013835 32.0
130.032534966 36.0
130.085056097 28.0
130.137577228 26.0
130.190098358 28.0
130.242619489 36.0
130.295140620 27.0
130.347661750 27.0
130.400182881 16.0
130.452704012 35.0
130.505225142 21.0
130.557746273 31.0
130.610267404 26.0
130.662788535 34.0
130.715309665 31.0
130.767830796 19.0
130.820351927 34.0
130.872873057 27.0
130.925394188 29.0
130.977915319 38.0
131.030436450 28.0
131.082957580 23.0
131.135478711 34.0
131.187999842 32.0
131.240520972 37.0
131.293042103 45.0
131.345563234 26.0
131.398084364 31.0
131.450605495 29.0
131.503126626 37.0
131.555647757 24.0
131.608168887 41.0
131.660690018 24.0
131.713211149 27.0
131.765732279 20.0
131.818253410 36.0
131.870774541 39.0
131.923295672 33.0
131.975816802 32.0
132.028337933 35.0
132.080859064 24.0
132.133380194 28.0
132.185901325 27.0
132.238422456 33.0
132.290943586 34.0
132.343464717 36.0
132.395985848 32.0
132.448506979 39.0
132.501028109 29.0
132.553549240 30.0
132.606070371 34.0
132.658591501 40.0
132.711112632 32.0
132.763633763 33.0
132.816154893 36.0
132.868676024 30.0
132.921197155 31.0
132.973718286 44.0
133.026239416 34.0
133.078760547 37.0
133.131281678 31.0
133.183802808 35.0
133.236323939 22.0
133.288845070 23.0
133.341366201 40.0
133.393887331 39.0
133.446408462 42.0
133.498929593 40.0
133.551450723 43.0
133.603971854 36.0
133.656492985 24.0
133.709014115 27.0
133.761535246 27.0
133.814056377 25.0
133.866577508 25.0
133.919098638 37.0
133.971619769 42.0
134.024140900 25.0
134.076662030 22.0
134.129183161 39.0
134.181704292 33.0
134.234225423 29.0
134.286746553 27.0
134.339267684 30.0
134.391788815 33.0
134.444309945 41.0
134.496831076 40.0
134.549352207 23.0
134.601873337 29.0
134.654394468 42.0
134.706915599 30.0
134.759436730 38.0
134.811957860 28.0
134.864478991 38.0
134.917000122 33.0
134.969521252 32.0
135.022042383 29.0
135.074563514 31.0
135.127084644 32.0
135.179605775 29.0
135.232126906 41.0
135.284648037 39.0
135.337169167 42.0
135.389690298 34.0
135.442211429 44.0
135.494732559 29.0
135.547253690 41.0
135.599774821 37.0
135.652295952 32.0
135.704817082 35.0
135.757338213 35.0
135.809859344 57.0
135.862380474 31.0
135.914901605 37.0
135.967422736 43.0
136.019943866 30.0
136.072464997 35.0
136.124986128 31.0
136.177507259 30.0
136.230028389 50.0
136.282549520 37.0
136.335070651 31.0
136.387591781 29.0
136.440112912 31.0
136.492634043 34.0
136.545155174 34.0
136.597676304 42.0
136.650197435 40.0
136.702718566 33.0
136.755239696 33.0
136.807760827 34.0
136.860281958 36.0
136.912803088 30.0
136.965324219 34.0
137.017845350 31.0
137.070366481 28.0
137.122887611 37.0
137.175408742 37.0
137.227929873 24.0
137.280451003 30.0
137.332972134 27.0
137.385493265 35.0
137.438014395 34.0
137.490535526 38.0
137.543056657 32.0
137.595577788 36.0
137.648098918 47.0
137.700620049 42.0
137.753141180 49.0
137.805662310 37.0
137.858183441 35.0
137.910704572 29.0
137.963225703 33.0
138.015746833 19.0
138.068267964 34.0
138.120789095 42.0
138.173310225 38.0
138.225831356 31.0
138.278352487 29.0
138.330873617 35.0
138.383394748 37.0
138.435915879 34.0
138.488437010 31.0
138.540958140 47.0
138.593479271 28.0
138.646000402 23.0
138.698521532 27.0
138.751042663 33.0
138.803563794 26.0
138.856084925 46.0
138.908606055 34.0
138.961127186 30.0
139.013648317 43.0
139.066169447 32.0
139.118690578 47.0
139.171211709 44.0
139.223732839 35.0
139.276253970 29.0
139.328775101 38.0
139.381296232 33.0
139.433817362 30.0
139.486338493 28.0
139.538859624 37.0
139.591380754 42.0
139.643901885 37.0
139.696423016 28.0
139.748944146 47.0
139.801465277 25.0
139.853986408 29.0
139.906507539 27.0
139.959028669 51.0
140.011549800 44.0
