2.091060570 47.0
2.143581701 57.0
2.196102831 62.0
2.248623962 62.0
2.301145093 38.0
2.353666224 56.0
2.406187354 64.0
2.458708485 61.0
2.511229616 54.0
2.563750746 54.0
2.616271877 55.0
2.668793008 64.0
2.721314138 53.0
2.773835269 59.0
2.826356400 65.0
2.878877531 84.0
2.931398661 75.0
2.983919792 65.0
3.036440923 62.0
3.088962053 68.0
3.141483184 67.0
3.194004315 59.0
3.246525445 69.0
3.299046576 63.0
3.351567707 73.0
3.404088838 73.0
3.456609968 76.0
3.509131099 60.0
3.561652230 77.0
3.614173360 63.0
3.666694491 78.0
3.719215622 71.0
3.771736753 63.0
3.824257883 85.0
3.876779014 73.0
3.929300145 77.0
3.981821275 85.0
4.034342406 78.0
4.086863537 77.0
4.139384667 75.0
4.191905798 76.0
4.244426929 79.0
4.296948060 64.0
4.349469190 73.0
4.401990321 69.0
4.454511452 79.0
4.507032582 70.0
4.559553713 80.0
4.612074844 73.0
4.664595975 86.0
4.717117105 92.0
4.769638236 72.0
4.822159367 93.0
4.874680497 105.0
4.927201628 92.0
4.979722759 79.0
5.032243889 99.0
5.084765020 90.0
5.137286151 89.0
5.189807282 84.0
5.242328412 86.0
5.294849543 107.0
5.347370674 98.0
5.399891804 106.0
5.452412935 70.0
5.504934066 99.0
5.557455196 87.0
5.609976327 107.0
5.662497458 107.0
5.715018589 90.0
5.767539719 103.0
5.820060850 100.0
5.872581981 93.0
5.925103111 109.0
5.977624242 114.0
6.030145373 104.0
6.082666504 92.0
6.135187634 106.0
6.187708765 127.0
6.240229896 113.0
6.292751026 119.0
6.345272157 141.0
6.397793288 149.0
6.450314418 173.0
6.502835549 195.0
6.555356680 231.0
6.607877811 265.0
6.660398941 295.0
6.712920072 440.0
6.765441203 558.0
6.817962333 662.0
6.870483464 851.0
6.923004595 1046.0
6.975525726 837.0
7.028046856 621.0
7.080567987 443.0
7.133089118 360.0
7.185610248 309.0
7.238131379 337.0
7.290652510 344.0
7.343173640 352.0
7.395694771 305.0
7.448215902 204.0
7.500737033 153.0
7.553258163 125.0
7.605779294 140.0
7.658300425 136.0
7.710821555 124.0
7.763342686 128.0
7.815863817 123.0
7.868384947 137.0
7.920906078 148.0
7.973427209 134.0
8.025948340 141.0
8.078469470 136.0
8.130990601 134.0
8.183511732 151.0
8.236032862 128.0
8.288553993 136.0
8.341075124 135.0
8.393596255 131.0
8.446117385 118.0
8.498638516 127.0
8.551159647 134.0
8.603680777 135.0
8.656201908 106.0
8.708723039 146.0
8.761244169 131.0
8.813765300 128.0
8.866286431 144.0
8.918807562 159.0
8.971328692 125.0
9.023849823 144.0
9.076370954 149.0
9.128892084 170.0
9.181413215 154.0
9.233934346 163.0
9.286455477 122.0
9.338976607 154.0
9.391497738 131.0
9.444018869 143.0
9.496539999 160.0
9.549061130 141.0
9.601582261 139.0
9.654103391 147.0
9.706624522 129.0
9.759145653 150.0
9.811666784 173.0
9.864187914 146.0
9.916709045 151.0
9.969230176 154.0
10.021751306 146.0
10.074272437 164.0
10.126793568 159.0
10.179314698 142.0
10.231835829 171.0
10.284356960 145.0
10.336878091 172.0
10.389399221 173.0
10.441920352 168.0
10.494441483 161.0
10.546962613 190.0
10.599483744 160.0
10.652004875 163.0
10.704526006 187.0
10.757047136 195.0
10.809568267 208.0
10.862089398 222.0
10.914610528 286.0
10.967131659 255.0
11.019652790 286.0
11.072173920 361.0
11.124695051 413.0
11.177216182 467.0
11.229737313 545.0
11.282258443 636.0
11.334779574 734.0
11.387300705 694.0
11.439821835 543.0
11.492342966 446.0
11.544864097 378.0
11.597385228 327.0
11.649906358 254.0
11.702427489 216.0
11.754948620 231.0
11.807469750 205.0
11.859990881 212.0
11.912512012 192.0
11.965033142 188.0
12.017554273 206.0
12.070075404 186.0
12.122596535 187.0
12.175117665 200.0
12.227638796 210.0
12.280159927 201.0
12.332681057 209.0
12.385202188 205.0
12.437723319 244.0
12.490244449 204.0
12.542765580 196.0
12.595286711 186.0
12.647807842 218.0
12.700328972 224.0
12.752850103 197.0
12.805371234 217.0
12.857892364 242.0
12.910413495 200.0
12.962934626 222.0
13.015455757 226.0
13.067976887 205.0
13.120498018 221.0
13.173019149 205.0
13.225540279 198.0
13.278061410 192.0
13.330582541 207.0
13.383103671 235.0
13.435624802 208.0
13.488145933 230.0
13.540667064 260.0
13.593188194 254.0
13.645709325 281.0
13.698230456 309.0
13.750751586 307.0
13.803272717 276.0
13.855793848 275.0
13.908314979 346.0
13.960836109 325.0
14.013357240 301.0
14.065878371 283.0
14.118399501 268.0
14.170920632 261.0
14.223441763 297.0
14.275962893 254.0
14.328484024 279.0
14.381005155 263.0
14.433526286 296.0
14.486047416 260.0
14.538568547 287.0
14.591089678 299.0
14.643610808 310.0
14.696131939 287.0
14.748653070 289.0
14.801174200 315.0
14.853695331 310.0
14.906216462 290.0
14.958737593 272.0
15.011258723 300.0
15.063779854 305.0
15.116300985 273.0
15.168822115 299.0
15.221343246 299.0
15.273864377 320.0
15.326385508 317.0
15.378906638 291.0
15.431427769 300.0
15.483948900 285.0
15.536470030 278.0
15.588991161 254.0
15.641512292 321.0
15.694033422 289.0
15.746554553 295.0
15.799075684 269.0
15.851596815 268.0
15.904117945 279.0
15.956639076 302.0
16.009160207 260.0
16.061681337 311.0
16.114202468 321.0
16.166723599 325.0
16.219244730 324.0
16.271765860 315.0
16.324286991 299.0
16.376808122 318.0
16.429329252 309.0
16.481850383 323.0
16.534371514 318.0
16.586892644 317.0
16.639413775 310.0
16.691934906 305.0
16.744456037 305.0
16.796977167 280.0
16.849498298 296.0
16.902019429 299.0
16.954540559 307.0
17.007061690 282.0
17.059582821 291.0
17.112103951 291.0
17.164625082 267.0
17.217146213 282.0
17.269667344 264.0
17.322188474 273.0
17.374709605 295.0
17.427230736 284.0
17.479751866 240.0
17.532272997 267.0
17.584794128 282.0
17.637315259 309.0
17.689836389 285.0
17.742357520 335.0
17.794878651 410.0
17.847399781 548.0
17.899920912 779.0
17.952442043 1039.0
18.004963173 984.0
18.057484304 697.0
18.110005435 487.0
18.162526566 404.0
18.215047696 352.0
18.267568827 337.0
18.320089958 346.0
18.372611088 286.0
18.425132219 303.0
18.477653350 266.0
18.530174481 285.0
18.582695611 269.0
18.635216742 238.0
18.687737873 256.0
18.740259003 262.0
18.792780134 266.0
18.845301265 272.0
18.897822395 260.0
18.950343526 272.0
19.002864657 276.0
19.055385788 321.0
19.107906918 307.0
19.160428049 316.0
19.212949180 315.0
19.265470310 357.0
19.317991441 324.0
19.370512572 347.0
19.423033702 423.0
19.475554833 440.0
19.528075964 447.0
19.580597095 451.0
19.633118225 381.0
19.685639356 429.0
19.738160487 343.0
19.790681617 348.0
19.843202748 340.0
19.895723879 338.0
19.948245010 366.0
20.000766140 347.0
20.053287271 323.0
20.105808402 312.0
20.158329532 300.0
20.210850663 323.0
20.263371794 366.0
20.315892924 321.0
20.368414055 326.0
20.420935186 365.0
20.473456317 353.0
20.525977447 376.0
20.578498578 398.0
20.631019709 438.0
20.683540839 490.0
20.736061970 554.0
20.788583101 495.0
20.841104232 521.0
20.893625362 446.0
20.946146493 411.0
20.998667624 359.0
21.051188754 366.0
21.103709885 358.0
21.156231016 365.0
21.208752146 341.0
21.261273277 397.0
21.313794408 356.0
21.366315539 394.0
21.418836669 382.0
21.471357800 394.0
21.523878931 353.0
21.576400061 403.0
21.628921192 349.0
21.681442323 419.0
21.733963453 425.0
21.786484584 458.0
21.839005715 461.0
21.891526846 455.0
21.944047976 510.0
21.996569107 545.0
22.049090238 584.0
22.101611368 595.0
22.154132499 652.0
22.206653630 625.0
22.259174761 725.0
22.311695891 715.0
22.364217022 643.0
22.416738153 640.0
22.469259283 626.0
22.521780414 662.0
22.574301545 639.0
22.626822675 639.0
22.679343806 686.0
22.731864937 656.0
22.784386068 634.0
22.836907198 591.0
22.889428329 560.0
22.941949460 580.0
22.994470590 517.0
23.046991721 532.0
23.099512852 507.0
23.152033983 498.0
23.204555113 483.0
23.257076244 449.0
23.309597375 436.0
23.362118505 404.0
23.414639636 391.0
23.467160767 398.0
23.519681897 329.0
23.572203028 348.0
23.624724159 393.0
23.677245290 287.0
23.729766420 318.0
23.782287551 296.0
23.834808682 312.0
23.887329812 301.0
23.939850943 285.0
23.992372074 319.0
24.044893204 335.0
24.097414335 304.0
24.149935466 302.0
24.202456597 310.0
24.254977727 295.0
24.307498858 330.0
24.360019989 337.0
24.412541119 417.0
24.465062250 475.0
24.517583381 422.0
24.570104512 460.0
24.622625642 502.0
24.675146773 592.0
24.727667904 640.0
24.780189034 625.0
24.832710165 579.0
24.885231296 545.0
24.937752426 492.0
24.990273557 444.0
25.042794688 496.0
25.095315819 440.0
25.147836949 416.0
25.200358080 366.0
25.252879211 328.0
25.305400341 337.0
25.357921472 316.0
25.410442603 311.0
25.462963733 328.0
25.515484864 330.0
25.568005995 326.0
25.620527126 315.0
25.673048256 255.0
25.725569387 259.0
25.778090518 273.0
25.830611648 244.0
25.883132779 236.0
25.935653910 214.0
25.988175041 245.0
26.040696171 236.0
26.093217302 243.0
26.145738433 208.0
26.198259563 218.0
26.250780694 221.0
26.303301825 213.0
26.355822955 221.0
26.408344086 235.0
26.460865217 215.0
26.513386348 210.0
26.565907478 213.0
26.618428609 211.0
26.670949740 206.0
26.723470870 217.0
26.775992001 217.0
26.828513132 231.0
26.881034263 264.0
26.933555393 266.0
26.986076524 310.0
27.038597655 364.0
27.091118785 377.0
27.143639916 400.0
27.196161047 368.0
27.248682177 377.0
27.301203308 354.0
27.353724439 337.0
27.406245570 354.0
27.458766700 337.0
27.511287831 277.0
27.563808962 253.0
27.616330092 282.0
27.668851223 286.0
27.721372354 270.0
27.773893484 274.0
27.826414615 260.0
27.878935746 259.0
27.931456877 257.0
27.983978007 276.0
28.036499138 278.0
28.089020269 263.0
28.141541399 255.0
28.194062530 237.0
28.246583661 261.0
28.299104792 225.0
28.351625922 205.0
28.404147053 207.0
28.456668184 217.0
28.509189314 187.0
28.561710445 183.0
28.614231576 158.0
28.666752706 202.0
28.719273837 200.0
28.771794968 191.0
28.824316099 180.0
28.876837229 193.0
28.929358360 203.0
28.981879491 191.0
29.034400621 183.0
29.086921752 170.0
29.139442883 192.0
29.191964014 190.0
29.244485144 172.0
29.297006275 173.0
29.349527406 181.0
29.402048536 181.0
29.454569667 203.0
29.507090798 161.0
29.559611928 181.0
29.612133059 196.0
29.664654190 170.0
29.717175321 167.0
29.769696451 173.0
29.822217582 156.0
29.874738713 196.0
29.927259843 171.0
29.979780974 170.0
30.032302105 180.0
30.084823235 194.0
30.137344366 219.0
30.189865497 179.0
30.242386628 184.0
30.294907758 194.0
30.347428889 188.0
30.399950020 189.0
30.452471150 197.0
30.504992281 210.0
30.557513412 223.0
30.610034543 189.0
30.662555673 190.0
30.715076804 165.0
30.767597935 191.0
30.820119065 179.0
30.872640196 165.0
30.925161327 153.0
30.977682457 160.0
31.030203588 132.0
31.082724719 145.0
31.135245850 145.0
31.187766980 124.0
31.240288111 139.0
31.292809242 136.0
31.345330372 126.0
31.397851503 130.0
31.450372634 137.0
31.502893765 156.0
31.555414895 141.0
31.607936026 150.0
31.660457157 149.0
31.712978287 147.0
31.765499418 140.0
31.818020549 142.0
31.870541679 124.0
31.923062810 133.0
31.975583941 159.0
32.028105072 126.0
32.080626202 124.0
32.133147333 125.0
32.185668464 117.0
32.238189594 121.0
32.290710725 114.0
32.343231856 164.0
32.395752986 137.0
32.448274117 137.0
32.500795248 135.0
32.553316379 128.0
32.605837509 140.0
32.658358640 155.0
32.710879771 161.0
32.763400901 143.0
32.815922032 147.0
32.868443163 170.0
32.920964294 162.0
32.973485424 149.0
33.026006555 156.0
33.078527686 137.0
33.131048816 132.0
33.183569947 126.0
33.236091078 170.0
33.288612208 139.0
33.341133339 151.0
33.393654470 124.0
33.446175601 137.0
33.498696731 130.0
33.551217862 159.0
33.603738993 138.0
33.656260123 137.0
33.708781254 156.0
33.761302385 143.0
33.813823516 132.0
33.866344646 143.0
33.918865777 137.0
33.971386908 143.0
34.023908038 151.0
34.076429169 127.0
34.128950300 159.0
34.181471430 155.0
34.233992561 145.0
34.286513692 165.0
34.339034823 175.0
34.391555953 149.0
34.444077084 150.0
34.496598215 170.0
34.549119345 160.0
34.601640476 168.0
34.654161607 157.0
34.706682737 152.0
34.759203868 151.0
34.811724999 158.0
34.864246130 116.0
34.916767260 157.0
34.969288391 133.0
35.021809522 152.0
35.074330652 129.0
35.126851783 125.0
35.179372914 151.0
35.231894045 133.0
35.284415175 169.0
35.336936306 125.0
35.389457437 137.0
35.441978567 137.0
35.494499698 133.0
35.547020829 139.0
35.599541959 125.0
35.652063090 151.0
35.704584221 145.0
35.757105352 127.0
35.809626482 141.0
35.862147613 145.0
35.914668744 114.0
35.967189874 135.0
36.019711005 124.0
36.072232136 156.0
36.124753267 161.0
36.177274397 152.0
36.229795528 131.0
36.282316659 160.0
36.334837789 147.0
36.387358920 167.0
36.439880051 175.0
36.492401181 159.0
36.544922312 174.0
36.597443443 170.0
36.649964574 173.0
36.702485704 139.0
36.755006835 148.0
36.807527966 126.0
36.860049096 152.0
36.912570227 135.0
36.965091358 124.0
37.017612488 149.0
37.070133619 159.0
37.122654750 140.0
37.175175881 140.0
37.227697011 138.0
37.280218142 147.0
37.332739273 138.0
37.385260403 148.0
37.437781534 139.0
37.490302665 134.0
37.542823796 115.0
37.595344926 139.0
37.647866057 117.0
37.700387188 135.0
37.752908318 161.0
37.805429449 158.0
37.857950580 123.0
37.910471710 125.0
37.962992841 144.0
38.015513972 136.0
38.068035103 106.0
38.120556233 125.0
38.173077364 127.0
38.225598495 126.0
38.278119625 115.0
38.330640756 135.0
38.383161887 111.0
38.435683018 98.0
38.488204148 118.0
38.540725279 129.0
38.593246410 116.0
38.645767540 119.0
38.698288671 126.0
38.750809802 111.0
38.803330932 112.0
38.855852063 120.0
38.908373194 138.0
38.960894325 136.0
39.013415455 132.0
39.065936586 131.0
39.118457717 128.0
39.170978847 122.0
39.223499978 118.0
39.276021109 140.0
39.328542239 125.0
39.381063370 97.0
39.433584501 110.0
39.486105632 116.0
39.538626762 96.0
39.591147893 113.0
39.643669024 120.0
39.696190154 116.0
39.748711285 116.0
39.801232416 111.0
39.853753547 121.0
39.906274677 130.0
39.958795808 125.0
40.011316939 97.0
40.063838069 107.0
40.116359200 108.0
40.168880331 128.0
40.221401461 103.0
40.273922592 130.0
40.326443723 94.0
40.378964854 110.0
40.431485984 124.0
40.484007115 113.0
40.536528246 116.0
40.589049376 124.0
40.641570507 106.0
40.694091638 112.0
40.746612769 94.0
40.799133899 97.0
40.851655030 106.0
40.904176161 100.0
40.956697291 105.0
41.009218422 103.0
41.061739553 113.0
41.114260683 110.0
41.166781814 107.0
41.219302945 108.0
41.271824076 89.0
41.324345206 102.0
41.376866337 102.0
41.429387468 88.0
41.481908598 113.0
41.534429729 102.0
41.586950860 91.0
41.639471990 103.0
41.691993121 109.0
41.744514252 113.0
41.797035383 120.0
41.849556513 117.0
41.902077644 118.0
41.954598775 118.0
42.007119905 108.0
42.059641036 116.0
42.112162167 107.0
42.164683298 107.0
42.217204428 113.0
42.269725559 109.0
42.322246690 97.0
42.374767820 110.0
42.427288951 101.0
42.479810082 104.0
42.532331212 103.0
42.584852343 93.0
42.637373474 102.0
42.689894605 119.0
42.742415735 97.0
42.794936866 118.0
42.847457997 100.0
42.899979127 109.0
42.952500258 99.0
43.005021389 126.0
43.057542520 119.0
43.110063650 101.0
43.162584781 119.0
43.215105912 83.0
43.267627042 104.0
43.320148173 102.0
43.372669304 111.0
43.425190434 89.0
43.477711565 87.0
43.530232696 92.0
43.582753827 93.0
43.635274957 120.0
43.687796088 71.0
43.740317219 80.0
43.792838349 107.0
43.845359480 118.0
43.897880611 94.0
43.950401741 87.0
44.002922872 102.0
44.055444003 87.0
44.107965134 86.0
44.160486264 95.0
44.213007395 97.0
44.265528526 81.0
44.318049656 87.0
44.370570787 105.0
44.423091918 103.0
44.475613049 108.0
44.528134179 107.0
44.580655310 102.0
44.633176441 82.0
44.685697571 111.0
44.738218702 110.0
44.790739833 117.0
44.843260963 95.0
44.895782094 77.0
44.948303225 96.0
45.000824356 105.0
45.053345486 91.0
45.105866617 112.0
45.158387748 119.0
45.210908878 94.0
45.263430009 108.0
45.315951140 95.0
45.368472271 108.0
45.420993401 102.0
45.473514532 121.0
45.526035663 96.0
45.578556793 108.0
45.631077924 96.0
45.683599055 113.0
45.736120185 101.0
45.788641316 99.0
45.841162447 96.0
45.893683578 99.0
45.946204708 86.0
45.998725839 89.0
46.051246970 106.0
46.103768100 91.0
46.156289231 113.0
46.208810362 88.0
46.261331492 94.0
46.313852623 102.0
46.366373754 121.0
46.418894885 100.0
46.471416015 117.0
46.523937146 95.0
46.576458277 79.0
46.628979407 88.0
46.681500538 83.0
46.734021669 100.0
46.786542800 95.0
46.839063930 92.0
46.891585061 97.0
46.944106192 92.0
46.996627322 84.0
47.049148453 102.0
47.101669584 79.0
47.154190714 90.0
47.206711845 109.0
47.259232976 89.0
47.311754107 99.0
47.364275237 106.0
47.416796368 89.0
47.469317499 82.0
47.521838629 79.0
47.574359760 111.0
47.626880891 75.0
47.679402022 82.0
47.731923152 96.0
47.784444283 79.0
47.836965414 81.0
47.889486544 79.0
47.942007675 75.0
47.994528806 74.0
48.047049936 95.0
48.099571067 68.0
48.152092198 99.0
48.204613329 85.0
48.257134459 76.0
48.309655590 80.0
48.362176721 88.0
48.414697851 72.0
48.467218982 75.0
48.519740113 86.0
48.572261243 95.0
48.624782374 78.0
48.677303505 85.0
48.729824636 64.0
48.782345766 67.0
48.834866897 77.0
48.887388028 90.0
48.939909158 77.0
48.992430289 75.0
49.044951420 92.0
49.097472551 79.0
49.149993681 92.0
49.202514812 80.0
49.255035943 83.0
49.307557073 71.0
49.360078204 87.0
49.412599335 81.0
49.465120465 87.0
49.517641596 88.0
49.570162727 93.0
49.622683858 76.0
49.675204988 73.0
49.727726119 72.0
49.780247250 76.0
49.832768380 70.0
49.885289511 77.0
49.937810642 86.0
49.990331772 69.0
50.042852903 82.0
50.095374034 70.0
50.147895165 68.0
50.200416295 102.0
50.252937426 93.0
50.305458557 92.0
50.357979687 101.0
50.410500818 96.0
50.463021949 95.0
50.515543080 93.0
50.568064210 91.0
50.620585341 81.0
50.673106472 57.0
50.725627602 82.0
50.778148733 71.0
50.830669864 101.0
50.883190994 80.0
50.935712125 77.0
50.988233256 88.0
51.040754387 70.0
51.093275517 87.0
51.145796648 72.0
51.198317779 85.0
51.250838909 56.0
51.303360040 103.0
51.355881171 89.0
51.408402302 67.0
51.460923432 85.0
51.513444563 74.0
51.565965694 72.0
51.618486824 71.0
51.671007955 96.0
51.723529086 70.0
51.776050216 71.0
51.828571347 71.0
51.881092478 70.0
51.933613609 76.0
51.986134739 66.0
52.038655870 62.0
52.091177001 75.0
52.143698131 75.0
52.196219262 67.0
52.248740393 80.0
52.301261523 53.0
52.353782654 68.0
52.406303785 66.0
52.458824916 60.0
52.511346046 64.0
52.563867177 63.0
52.616388308 69.0
52.668909438 62.0
52.721430569 61.0
52.773951700 76.0
52.826472831 59.0
52.878993961 67.0
52.931515092 72.0
52.984036223 75.0
53.036557353 57.0
53.089078484 65.0
53.141599615 64.0
53.194120745 62.0
53.246641876 67.0
53.299163007 57.0
53.351684138 54.0
53.404205268 56.0
53.456726399 61.0
53.509247530 63.0
53.561768660 65.0
53.614289791 72.0
53.666810922 72.0
53.719332053 78.0
53.771853183 62.0
53.824374314 74.0
53.876895445 65.0
53.929416575 59.0
53.981937706 65.0
54.034458837 58.0
54.086979967 65.0
54.139501098 64.0
54.192022229 72.0
54.244543360 55.0
54.297064490 71.0
54.349585621 77.0
54.402106752 72.0
54.454627882 59.0
54.507149013 65.0
54.559670144 61.0
54.612191274 64.0
54.664712405 78.0
54.717233536 54.0
54.769754667 62.0
54.822275797 66.0
54.874796928 55.0
54.927318059 54.0
54.979839189 67.0
55.032360320 56.0
55.084881451 55.0
55.137402582 48.0
55.189923712 51.0
55.242444843 46.0
55.294965974 69.0
55.347487104 61.0
55.400008235 63.0
55.452529366 41.0
55.505050496 63.0
55.557571627 53.0
55.610092758 50.0
55.662613889 56.0
55.715135019 64.0
55.767656150 66.0
55.820177281 68.0
55.872698411 56.0
55.925219542 65.0
55.977740673 62.0
56.030261804 62.0
56.082782934 64.0
56.135304065 64.0
56.187825196 64.0
56.240346326 65.0
56.292867457 64.0
56.345388588 69.0
56.397909718 64.0
56.450430849 63.0
56.502951980 44.0
56.555473111 58.0
56.607994241 61.0
56.660515372 66.0
56.713036503 46.0
56.765557633 78.0
56.818078764 65.0
56.870599895 60.0
56.923121025 52.0
56.975642156 66.0
57.028163287 51.0
57.080684418 62.0
57.133205548 65.0
57.185726679 52.0
57.238247810 62.0
57.290768940 50.0
57.343290071 49.0
57.395811202 50.0
57.448332333 60.0
57.500853463 38.0
57.553374594 39.0
57.605895725 56.0
57.658416855 61.0
57.710937986 49.0
57.763459117 60.0
57.815980247 43.0
57.868501378 49.0
57.921022509 55.0
57.973543640 56.0
58.026064770 52.0
58.078585901 51.0
58.131107032 58.0
58.183628162 51.0
58.236149293 49.0
58.288670424 63.0
58.341191555 44.0
58.393712685 57.0
58.446233816 50.0
58.498754947 51.0
58.551276077 45.0
58.603797208 36.0
58.656318339 65.0
58.708839469 46.0
58.761360600 52.0
58.813881731 44.0
58.866402862 50.0
58.918923992 47.0
58.971445123 42.0
59.023966254 56.0
59.076487384 58.0
59.129008515 55.0
59.181529646 59.0
59.234050776 51.0
59.286571907 45.0
59.339093038 42.0
59.391614169 51.0
59.444135299 55.0
59.496656430 46.0
59.549177561 44.0
59.601698691 50.0
59.654219822 47.0
59.706740953 58.0
59.759262084 43.0
59.811783214 44.0
59.864304345 43.0
59.916825476 37.0
59.969346606 47.0
60.021867737 50.0
60.074388868 44.0
60.126909998 35.0
60.179431129 46.0
60.231952260 51.0
60.284473391 61.0
60.336994521 46.0
60.389515652 44.0
60.442036783 47.0
60.494557913 45.0
60.547079044 36.0
60.599600175 45.0
60.652121306 45.0
60.704642436 47.0
60.757163567 53.0
60.809684698 52.0
60.862205828 51.0
60.914726959 44.0
60.967248090 44.0
61.019769220 45.0
61.072290351 35.0
61.124811482 35.0
61.177332613 50.0
61.229853743 50.0
61.282374874 38.0
61.334896005 49.0
61.387417135 42.0
61.439938266 38.0
61.492459397 53.0
61.544980527 52.0
61.597501658 41.0
61.650022789 34.0
61.702543920 56.0
61.755065050 41.0
61.807586181 37.0
61.860107312 46.0
61.912628442 44.0
61.965149573 35.0
62.017670704 52.0
62.070191835 53.0
62.122712965 48.0
62.175234096 30.0
62.227755227 41.0
62.280276357 47.0
62.332797488 36.0
62.385318619 40.0
62.437839749 47.0
62.490360880 44.0
62.542882011 56.0
62.595403142 46.0
62.647924272 35.0
62.700445403 37.0
62.752966534 28.0
62.805487664 37.0
62.858008795 46.0
62.910529926 52.0
62.963051057 29.0
63.015572187 45.0
63.068093318 37.0
63.120614449 35.0
63.173135579 40.0
63.225656710 47.0
63.278177841 38.0
63.330698971 57.0
63.383220102 40.0
63.435741233 48.0
63.488262364 26.0
63.540783494 33.0
63.593304625 42.0
63.645825756 53.0
63.698346886 37.0
63.750868017 33.0
63.803389148 44.0
63.855910278 37.0
63.908431409 52.0
63.960952540 31.0
64.013473671 34.0
64.065994801 33.0
64.118515932 46.0
64.171037063 40.0
64.223558193 45.0
64.276079324 43.0
64.328600455 48.0
64.381121586 46.0
64.433642716 32.0
64.486163847 39.0
64.538684978 39.0
64.591206108 37.0
64.643727239 39.0
64.696248370 30.0
64.748769500 36.0
64.801290631 26.0
64.853811762 46.0
64.906332893 44.0
64.958854023 45.0
65.011375154 29.0
65.063896285 24.0
65.116417415 45.0
65.168938546 34.0
65.221459677 24.0
65.273980808 47.0
65.326501938 41.0
65.379023069 41.0
65.431544200 45.0
65.484065330 29.0
65.536586461 43.0
65.589107592 43.0
65.641628722 44.0
65.694149853 39.0
65.746670984 42.0
65.799192115 31.0
65.851713245 40.0
65.904234376 27.0
65.956755507 43.0
66.009276637 26.0
66.061797768 29.0
66.114318899 44.0
66.166840029 32.0
66.219361160 39.0
66.271882291 49.0
66.324403422 35.0
66.376924552 32.0
66.429445683 33.0
66.481966814 40.0
66.534487944 42.0
66.587009075 31.0
66.639530206 39.0
66.692051337 35.0
66.744572467 28.0
66.797093598 45.0
66.849614729 29.0
66.902135859 33.0
66.954656990 43.0
67.007178121 38.0
67.059699251 43.0
67.112220382 39.0
67.164741513 44.0
67.217262644 37.0
67.269783774 37.0
67.322304905 28.0
67.374826036 37.0
67.427347166 37.0
67.479868297 44.0
67.532389428 39.0
67.584910559 41.0
67.637431689 42.0
67.689952820 38.0
67.742473951 26.0
67.794995081 41.0
67.847516212 38.0
67.900037343 48.0
67.952558473 31.0
68.005079604 28.0
68.057600735 27.0
68.110121866 29.0
68.162642996 42.0
68.215164127 33.0
68.267685258 49.0
68.320206388 37.0
68.372727519 33.0
68.425248650 43.0
68.477769780 41.0
68.530290911 36.0
68.582812042 43.0
68.635333173 36.0
68.687854303 56.0
68.740375434 32.0
68.792896565 35.0
68.845417695 36.0
68.897938826 36.0
68.950459957 39.0
69.002981088 43.0
69.055502218 44.0
69.108023349 47.0
69.160544480 44.0
69.213065610 36.0
69.265586741 38.0
69.318107872 33.0
69.370629002 41.0
69.423150133 31.0
69.475671264 50.0
69.528192395 45.0
69.580713525 34.0
69.633234656 45.0
69.685755787 52.0
69.738276917 38.0
69.790798048 38.0
69.843319179 35.0
69.895840310 40.0
69.948361440 27.0
70.000882571 35.0
70.053403702 36.0
70.105924832 29.0
70.158445963 46.0
70.210967094 43.0
70.263488224 41.0
70.316009355 29.0
70.368530486 43.0
70.421051617 35.0
70.473572747 34.0
70.526093878 37.0
70.578615009 37.0
70.631136139 32.0
70.683657270 26.0
70.736178401 47.0
70.788699531 41.0
70.841220662 30.0
70.893741793 34.0
70.946262924 42.0
70.998784054 50.0
71.051305185 31.0
71.103826316 41.0
71.156347446 33.0
71.208868577 34.0
71.261389708 34.0
71.313910839 38.0
71.366431969 35.0
71.418953100 33.0
71.471474231 33.0
71.523995361 36.0
71.576516492 41.0
71.629037623 39.0
71.681558753 39.0
71.734079884 37.0
71.786601015 38.0
71.839122146 40.0
71.891643276 35.0
71.944164407 38.0
71.996685538 42.0
72.049206668 42.0
72.101727799 39.0
72.154248930 48.0
72.206770060 35.0
72.259291191 32.0
72.311812322 29.0
72.364333453 36.0
72.416854583 31.0
72.469375714 46.0
72.521896845 41.0
72.574417975 28.0
72.626939106 38.0
72.679460237 24.0
72.731981368 46.0
72.784502498 45.0
72.837023629 37.0
72.889544760 34.0
72.942065890 36.0
72.994587021 33.0
73.047108152 28.0
73.099629282 37.0
73.152150413 30.0
73.204671544 43.0
73.257192675 37.0
73.309713805 40.0
73.362234936 38.0
73.414756067 36.0
73.467277197 48.0
73.519798328 42.0
73.572319459 32.0
73.624840590 32.0
73.677361720 44.0
73.729882851 26.0
73.782403982 22.0
73.834925112 40.0
73.887446243 48.0
73.939967374 47.0
73.992488504 30.0
74.045009635 43.0
74.097530766 54.0
74.150051897 48.0
74.202573027 34.0
74.255094158 63.0
74.307615289 40.0
74.360136419 40.0
74.412657550 42.0
74.465178681 39.0
74.517699811 39.0
74.570220942 34.0
74.622742073 38.0
74.675263204 43.0
74.727784334 34.0
74.780305465 48.0
74.832826596 39.0
74.885347726 39.0
74.937868857 32.0
74.990389988 34.0
75.042911119 43.0
75.095432249 47.0
75.147953380 33.0
75.200474511 32.0
75.252995641 46.0
75.305516772 46.0
75.358037903 45.0
75.410559033 32.0
75.463080164 29.0
75.515601295 39.0
75.568122426 42.0
75.620643556 32.0
75.673164687 42.0
75.725685818 40.0
75.778206948 38.0
75.830728079 27.0
75.883249210 26.0
75.935770341 40.0
75.988291471 40.0
76.040812602 37.0
76.093333733 34.0
76.145854863 34.0
76.198375994 39.0
76.250897125 48.0
76.303418255 31.0
76.355939386 39.0
76.408460517 36.0
76.460981648 31.0
76.513502778 46.0
76.566023909 44.0
76.618545040 39.0
76.671066170 52.0
76.723587301 48.0
76.776108432 53.0
76.828629562 35.0
76.881150693 37.0
76.933671824 36.0
76.986192955 21.0
77.038714085 42.0
77.091235216 48.0
77.143756347 28.0
77.196277477 35.0
77.248798608 35.0
77.301319739 39.0
77.353840870 44.0
77.406362000 33.0
77.458883131 21.0
77.511404262 42.0
77.563925392 39.0
77.616446523 35.0
77.668967654 36.0
77.721488784 35.0
77.774009915 37.0
77.826531046 42.0
77.879052177 28.0
77.931573307 42.0
77.984094438 32.0
78.036615569 29.0
78.089136699 39.0
78.141657830 41.0
78.194178961 28.0
78.246700092 46.0
78.299221222 28.0
78.351742353 36.0
78.404263484 46.0
78.456784614 46.0
78.509305745 41.0
78.561826876 32.0
78.614348006 40.0
78.666869137 35.0
78.719390268 42.0
78.771911399 45.0
78.824432529 42.0
78.876953660 40.0
78.929474791 32.0
78.981995921 42.0
79.034517052 33.0
79.087038183 35.0
79.139559313 27.0
79.192080444 24.0
79.244601575 34.0
79.297122706 40.0
79.349643836 29.0
79.402164967 45.0
79.454686098 36.0
79.507207228 39.0
79.559728359 35.0
79.612249490 34.0
79.664770621 33.0
79.717291751 48.0
79.769812882 26.0
79.822334013 39.0
79.874855143 48.0
79.927376274 40.0
79.979897405 33.0
80.032418535 33.0
80.084939666 45.0
80.137460797 36.0
80.189981928 28.0
80.242503058 30.0
80.295024189 41.0
80.347545320 49.0
80.400066450 36.0
80.452587581 34.0
80.505108712 35.0
80.557629843 34.0
80.610150973 35.0
80.662672104 35.0
80.715193235 42.0
80.767714365 27.0
80.820235496 41.0
80.872756627 36.0
80.925277757 50.0
80.977798888 26.0
81.030320019 32.0
81.082841150 36.0
81.135362280 29.0
81.187883411 36.0
81.240404542 32.0
81.292925672 39.0
81.345446803 44.0
81.397967934 42.0
81.450489064 30.0
81.503010195 40.0
81.555531326 25.0
81.608052457 23.0
81.660573587 33.0
81.713094718 36.0
81.765615849 32.0
81.818136979 30.0
81.870658110 36.0
81.923179241 42.0
81.975700372 39.0
82.028221502 28.0
82.080742633 53.0
82.133263764 39.0
82.185784894 33.0
82.238306025 29.0
82.290827156 27.0
82.343348286 24.0
82.395869417 38.0
82.448390548 34.0
82.500911679 29.0
82.553432809 44.0
82.605953940 39.0
82.658475071 46.0
82.710996201 41.0
82.763517332 33.0
82.816038463 24.0
82.868559594 31.0
82.921080724 32.0
82.973601855 43.0
83.026122986 35.0
83.078644116 34.0
83.131165247 50.0
83.183686378 46.0
83.236207508 30.0
83.288728639 30.0
83.341249770 22.0
83.393770901 29.0
83.446292031 39.0
83.498813162 43.0
83.551334293 41.0
83.603855423 33.0
83.656376554 41.0
83.708897685 33.0
83.761418815 33.0
83.813939946 30.0
83.866461077 31.0
83.918982208 33.0
83.971503338 39.0
84.024024469 43.0
84.076545600 23.0
84.129066730 31.0
84.181587861 26.0
84.234108992 38.0
84.286630123 29.0
84.339151253 25.0
84.391672384 25.0
84.444193515 41.0
84.496714645 39.0
84.549235776 40.0
84.601756907 41.0
84.654278037 34.0
84.706799168 35.0
84.759320299 30.0
84.811841430 29.0
84.864362560 40.0
84.916883691 43.0
84.969404822 37.0
85.021925952 39.0
85.074447083 42.0
85.126968214 33.0
85.179489345 32.0
85.232010475 25.0
85.284531606 38.0
85.337052737 36.0
85.389573867 33.0
85.442094998 33.0
85.494616129 48.0
85.547137259 32.0
85.599658390 28.0
85.652179521 40.0
85.704700652 29.0
85.757221782 30.0
85.809742913 40.0
85.862264044 26.0
85.914785174 33.0
85.967306305 36.0
86.019827436 31.0
86.072348566 33.0
86.124869697 37.0
86.177390828 13.0
86.229911959 32.0
86.282433089 26.0
86.334954220 42.0
86.387475351 21.0
86.439996481 28.0
86.492517612 19.0
86.545038743 29.0
86.597559874 35.0
86.650081004 25.0
86.702602135 24.0
86.755123266 33.0
86.807644396 34.0
86.860165527 34.0
86.912686658 38.0
86.965207788 35.0
87.017728919 27.0
87.070250050 35.0
87.122771181 28.0
87.175292311 28.0
87.227813442 35.0
87.280334573 36.0
87.332855703 19.0
87.385376834 33.0
87.437897965 29.0
87.490419096 29.0
87.542940226 30.0
87.595461357 30.0
87.647982488 25.0
87.700503618 24.0
87.753024749 29.0
87.805545880 40.0
87.858067010 37.0
87.910588141 36.0
87.963109272 31.0
88.015630403 36.0
88.068151533 15.0
88.120672664 35.0
88.173193795 39.0
88.225714925 28.0
88.278236056 21.0
88.330757187 38.0
88.383278317 30.0
88.435799448 28.0
88.488320579 38.0
88.540841710 25.0
88.593362840 33.0
88.645883971 38.0
88.698405102 41.0
88.750926232 32.0
88.803447363 33.0
88.855968494 38.0
88.908489625 35.0
88.961010755 25.0
89.013531886 26.0
89.066053017 30.0
89.118574147 34.0
89.171095278 29.0
89.223616409 27.0
89.276137539 25.0
89.328658670 37.0
89.381179801 25.0
89.433700932 21.0
89.486222062 31.0
89.538743193 41.0
89.591264324 26.0
89.643785454 27.0
89.696306585 28.0
89.748827716 20.0
89.801348847 37.0
89.853869977 27.0
89.906391108 33.0
89.958912239 25.0
90.011433369 24.0
90.063954500 22.0
90.116475631 28.0
90.168996761 31.0
90.221517892 36.0
90.274039023 23.0
90.326560154 25.0
90.379081284 19.0
90.431602415 38.0
90.484123546 27.0
90.536644676 30.0
90.589165807 34.0
90.641686938 41.0
90.694208068 32.0
90.746729199 31.0
90.799250330 28.0
90.851771461 32.0
90.904292591 35.0
90.956813722 28.0
91.009334853 34.0
91.061855983 30.0
91.114377114 27.0
91.166898245 25.0
91.219419376 29.0
91.271940506 26.0
91.324461637 30.0
91.376982768 25.0
91.429503898 25.0
91.482025029 44.0
91.534546160 21.0
91.587067290 34.0
91.639588421 29.0
91.692109552 27.0
91.744630683 31.0
91.797151813 32.0
91.849672944 25.0
91.902194075 40.0
91.954715205 33.0
92.007236336 25.0
92.059757467 21.0
92.112278598 29.0
92.164799728 24.0
92.217320859 31.0
92.269841990 22.0
92.322363120 29.0
92.374884251 33.0
92.427405382 18.0
92.479926512 35.0
92.532447643 19.0
92.584968774 25.0
92.637489905 20.0
92.690011035 31.0
92.742532166 13.0
92.795053297 31.0
92.847574427 19.0
92.900095558 23.0
92.952616689 31.0
93.005137819 19.0
93.057658950 29.0
93.110180081 26.0
93.162701212 27.0
93.215222342 18.0
93.267743473 29.0
93.320264604 26.0
93.372785734 30.0
93.425306865 27.0
93.477827996 31.0
93.530349127 23.0
93.582870257 32.0
93.635391388 19.0
93.687912519 24.0
93.740433649 24.0
93.792954780 21.0
93.845475911 43.0
93.897997041 13.0
93.950518172 22.0
94.003039303 20.0
94.055560434 21.0
94.108081564 29.0
94.160602695 27.0
94.213123826 29.0
94.265644956 35.0
94.318166087 34.0
94.370687218 31.0
94.423208348 34.0
94.475729479 30.0
94.528250610 20.0
94.580771741 26.0
94.633292871 26.0
94.685814002 27.0
94.738335133 25.0
94.790856263 32.0
94.843377394 23.0
94.895898525 30.0
94.948419656 19.0
95.000940786 26.0
95.053461917 28.0
95.105983048 23.0
95.158504178 22.0
95.211025309 29.0
95.263546440 20.0
95.316067570 30.0
95.368588701 36.0
95.421109832 28.0
95.473630963 33.0
95.526152093 28.0
95.578673224 19.0
95.631194355 22.0
95.683715485 25.0
95.736236616 26.0
95.788757747 34.0
95.841278878 26.0
95.893800008 33.0
95.946321139 26.0
95.998842270 29.0
96.051363400 28.0
96.103884531 41.0
96.156405662 23.0
96.208926792 24.0
96.261447923 28.0
96.313969054 24.0
96.366490185 22.0
96.419011315 21.0
96.471532446 23.0
96.524053577 17.0
96.576574707 27.0
96.629095838 27.0
96.681616969 33.0
96.734138099 20.0
96.786659230 26.0
96.839180361 18.0
96.891701492 23.0
96.944222622 24.0
96.996743753 23.0
97.049264884 25.0
97.101786014 17.0
97.154307145 22.0
97.206828276 25.0
97.259349407 19.0
97.311870537 19.0
97.364391668 27.0
97.416912799 27.0
97.469433929 30.0
97.521955060 24.0
97.574476191 18.0
97.626997321 29.0
97.679518452 19.0
97.732039583 24.0
97.784560714 21.0
97.837081844 21.0
97.889602975 22.0
97.942124106 31.0
97.994645236 22.0
98.047166367 32.0
98.099687498 26.0
98.152208629 32.0
98.204729759 13.0
98.257250890 29.0
98.309772021 27.0
98.362293151 22.0
98.414814282 27.0
98.467335413 29.0
98.519856543 24.0
98.572377674 23.0
98.624898805 21.0
98.677419936 22.0
98.729941066 19.0
98.782462197 30.0
98.834983328 21.0
98.887504458 25.0
98.940025589 23.0
98.992546720 22.0
99.045067850 23.0
99.097588981 40.0
99.150110112 38.0
99.202631243 31.0
99.255152373 27.0
99.307673504 22.0
99.360194635 24.0
99.412715765 17.0
99.465236896 24.0
99.517758027 13.0
99.570279158 15.0
99.622800288 21.0
99.675321419 22.0
99.727842550 21.0
99.780363680 20.0
99.832884811 25.0
99.885405942 26.0
99.937927072 21.0
99.990448203 27.0
100.042969334 29.0
100.095490465 11.0
100.148011595 18.0
100.200532726 26.0
100.253053857 19.0
100.305574987 26.0
100.358096118 16.0
100.410617249 23.0
100.463138380 24.0
100.515659510 20.0
100.568180641 24.0
100.620701772 23.0
100.673222902 18.0
100.725744033 29.0
100.778265164 24.0
100.830786294 19.0
100.883307425 15.0
100.935828556 19.0
100.988349687 35.0
101.040870817 26.0
101.093391948 20.0
101.145913079 28.0
101.198434209 20.0
101.250955340 32.0
101.303476471 32.0
101.355997601 16.0
101.408518732 33.0
101.461039863 22.0
101.513560994 36.0
101.566082124 29.0
101.618603255 24.0
101.671124386 19.0
101.723645516 31.0
101.776166647 27.0
101.828687778 25.0
101.881208909 34.0
101.933730039 28.0
101.986251170 24.0
102.038772301 21.0
102.091293431 20.0
102.143814562 25.0
102.196335693 22.0
102.248856823 17.0
102.301377954 28.0
102.353899085 25.0
102.406420216 26.0
102.458941346 20.0
102.511462477 23.0
102.563983608 27.0
102.616504738 20.0
102.669025869 19.0
102.721547000 18.0
102.774068131 27.0
102.826589261 17.0
102.879110392 16.0
102.931631523 21.0
102.984152653 20.0
103.036673784 19.0
103.089194915 29.0
103.141716045 20.0
103.194237176 28.0
103.246758307 27.0
103.299279438 20.0
103.351800568 23.0
103.404321699 24.0
103.456842830 26.0
103.509363960 17.0
103.561885091 19.0
103.614406222 21.0
103.666927352 20.0
103.719448483 26.0
103.771969614 28.0
103.824490745 23.0
103.877011875 26.0
103.929533006 25.0
103.982054137 27.0
104.034575267 21.0
104.087096398 18.0
104.139617529 21.0
104.192138660 27.0
104.244659790 26.0
104.297180921 18.0
104.349702052 25.0
104.402223182 25.0
104.454744313 21.0
104.507265444 23.0
104.559786574 21.0
104.612307705 28.0
104.664828836 20.0
104.717349967 26.0
104.769871097 21.0
104.822392228 14.0
104.874913359 14.0
104.927434489 27.0
104.979955620 21.0
105.032476751 30.0
105.084997882 20.0
105.137519012 16.0
105.190040143 25.0
105.242561274 15.0
105.295082404 20.0
105.347603535 23.0
105.400124666 30.0
105.452645796 17.0
105.505166927 28.0
105.557688058 29.0
105.610209189 22.0
105.662730319 21.0
105.715251450 30.0
105.767772581 18.0
105.820293711 22.0
105.872814842 19.0
105.925335973 22.0
105.977857103 19.0
106.030378234 24.0
106.082899365 11.0
106.135420496 19.0
106.187941626 19.0
106.240462757 19.0
106.292983888 24.0
106.345505018 30.0
106.398026149 18.0
106.450547280 14.0
106.503068411 17.0
106.555589541 21.0
106.608110672 29.0
106.660631803 27.0
106.713152933 24.0
106.765674064 16.0
106.818195195 28.0
106.870716325 18.0
106.923237456 29.0
106.975758587 26.0
107.028279718 19.0
107.080800848 21.0
107.133321979 17.0
107.185843110 22.0
107.238364240 23.0
107.290885371 21.0
107.343406502 25.0
107.395927633 19.0
107.448448763 27.0
107.500969894 27.0
107.553491025 22.0
107.606012155 25.0
107.658533286 17.0
107.711054417 27.0
107.763575547 25.0
107.816096678 14.0
107.868617809 22.0
107.921138940 24.0
107.973660070 14.0
108.026181201 23.0
108.078702332 11.0
108.131223462 13.0
108.183744593 20.0
108.236265724 21.0
108.288786854 16.0
108.341307985 17.0
108.393829116 17.0
108.446350247 20.0
108.498871377 27.0
108.551392508 19.0
108.603913639 20.0
108.656434769 16.0
108.708955900 20.0
108.761477031 26.0
108.813998162 18.0
108.866519292 20.0
108.919040423 19.0
108.971561554 37.0
109.024082684 20.0
109.076603815 15.0
109.129124946 24.0
109.181646076 20.0
109.234167207 25.0
109.286688338 9.0
109.339209469 24.0
109.391730599 23.0
109.444251730 15.0
109.496772861 21.0
109.549293991 24.0
109.601815122 24.0
109.654336253 13.0
109.706857384 20.0
109.759378514 22.0
109.811899645 24.0
109.864420776 21.0
109.916941906 29.0
109.969463037 16.0
110.021984168 23.0
110.074505298 28.0
110.127026429 23.0
110.179547560 21.0
110.232068691 22.0
110.284589821 17.0
110.337110952 28.0
110.389632083 15.0
110.442153213 27.0
110.494674344 28.0
110.547195475 20.0
110.599716605 27.0
110.652237736 20.0
110.704758867 23.0
110.757279998 19.0
110.809801128 21.0
110.862322259 23.0
110.914843390 21.0
110.967364520 16.0
111.019885651 20.0
111.072406782 22.0
111.124927913 33.0
111.177449043 19.0
111.229970174 30.0
111.282491305 25.0
111.335012435 22.0
111.387533566 23.0
111.440054697 18.0
111.492575827 17.0
111.545096958 16.0
111.597618089 23.0
111.650139220 25.0
111.702660350 30.0
111.755181481 25.0
111.807702612 19.0
111.860223742 20.0
111.912744873 16.0
111.965266004 26.0
112.017787135 33.0
112.070308265 18.0
112.122829396 19.0
112.175350527 7.0
112.227871657 21.0
112.280392788 14.0
112.332913919 20.0
112.385435049 15.0
112.437956180 27.0
112.490477311 25.0
112.542998442 20.0
112.595519572 26.0
112.648040703 28.0
112.700561834 25.0
112.753082964 19.0
112.805604095 21.0
112.858125226 25.0
112.910646356 31.0
112.963167487 25.0
113.015688618 27.0
113.068209749 22.0
113.120730879 18.0
113.173252010 23.0
113.225773141 17.0
113.278294271 24.0
113.330815402 25.0
113.383336533 24.0
113.435857664 23.0
113.488378794 16.0
113.540899925 11.0
113.593421056 30.0
113.645942186 17.0
113.698463317 11.0
113.750984448 24.0
113.803505578 18.0
113.856026709 16.0
113.908547840 25.0
113.961068971 26.0
114.013590101 18.0
114.066111232 14.0
114.118632363 14.0
114.171153493 19.0
114.223674624 18.0
114.276195755 24.0
114.328716886 29.0
114.381238016 18.0
114.433759147 16.0
114.486280278 32.0
114.538801408 21.0
114.591322539 24.0
114.643843670 19.0
114.696364800 12.0
114.748885931 24.0
114.801407062 28.0
114.853928193 16.0
114.906449323 30.0
114.958970454 23.0
115.011491585 22.0
115.064012715 22.0
115.116533846 20.0
115.169054977 23.0
115.221576107 22.0
115.274097238 18.0
115.326618369 20.0
115.379139500 23.0
115.431660630 19.0
115.484181761 21.0
115.536702892 24.0
115.589224022 24.0
115.641745153 23.0
115.694266284 19.0
115.746787415 22.0
115.799308545 18.0
115.851829676 21.0
115.904350807 18.0
115.956871937 17.0
116.009393068 15.0
116.061914199 24.0
116.114435329 16.0
116.166956460 32.0
116.219477591 19.0
116.271998722 23.0
116.324519852 27.0
116.377040983 15.0
116.429562114 18.0
116.482083244 27.0
116.534604375 21.0
116.587125506 21.0
116.639646637 30.0
116.692167767 15.0
116.744688898 17.0
116.797210029 21.0
116.849731159 22.0
116.902252290 22.0
116.954773421 25.0
117.007294551 22.0
117.059815682 17.0
117.112336813 18.0
117.164857944 24.0
117.217379074 21.0
117.269900205 19.0
117.322421336 25.0
117.374942466 11.0
117.427463597 18.0
117.479984728 26.0
117.532505858 18.0
117.585026989 25.0
117.637548120 32.0
117.690069251 22.0
117.742590381 25.0
117.795111512 10.0
117.847632643 15.0
117.900153773 28.0
117.952674904 18.0
118.005196035 25.0
118.057717166 33.0
118.110238296 17.0
118.162759427 24.0
118.215280558 18.0
118.267801688 21.0
118.320322819 21.0
118.372843950 19.0
118.425365080 30.0
118.477886211 16.0
118.530407342 17.0
118.582928473 19.0
118.635449603 26.0
118.687970734 31.0
118.740491865 18.0
118.793012995 18.0
118.845534126 26.0
118.898055257 25.0
118.950576387 14.0
119.003097518 20.0
119.055618649 19.0
119.108139780 21.0
119.160660910 21.0
119.213182041 34.0
119.265703172 26.0
119.318224302 10.0
119.370745433 26.0
119.423266564 17.0
119.475787695 18.0
119.528308825 18.0
119.580829956 15.0
119.633351087 18.0
119.685872217 26.0
119.738393348 17.0
119.790914479 35.0
119.843435609 29.0
119.895956740 20.0
119.948477871 20.0
120.000999002 12.0
120.053520132 21.0
120.106041263 21.0
120.158562394 15.0
120.211083524 16.0
120.263604655 19.0
120.316125786 20.0
120.368646917 18.0
120.421168047 20.0
120.473689178 24.0
120.526210309 17.0
120.578731439 25.0
120.631252570 22.0
120.683773701 18.0
120.736294831 33.0
120.788815962 21.0
120.841337093 14.0
120.893858224 17.0
120.946379354 29.0
120.998900485 22.0
121.051421616 18.0
121.103942746 19.0
121.156463877 18.0
121.208985008 21.0
121.261506138 25.0
121.314027269 30.0
121.366548400 18.0
121.419069531 14.0
121.471590661 10.0
121.524111792 26.0
121.576632923 22.0
121.629154053 23.0
121.681675184 21.0
121.734196315 24.0
121.786717446 21.0
121.839238576 19.0
121.891759707 24.0
121.944280838 31.0
121.996801968 20.0
122.049323099 22.0
122.101844230 23.0
122.154365360 23.0
122.206886491 22.0
122.259407622 19.0
122.311928753 19.0
122.364449883 22.0
122.416971014 20.0
122.469492145 15.0
122.522013275 29.0
122.574534406 29.0
122.627055537 19.0
122.679576668 33.0
122.732097798 18.0
122.784618929 18.0
122.837140060 26.0
122.889661190 18.0
122.942182321 14.0
122.994703452 15.0
123.047224582 30.0
123.099745713 33.0
123.152266844 17.0
123.204787975 21.0
123.257309105 17.0
123.309830236 15.0
123.362351367 17.0
123.414872497 17.0
123.467393628 24.0
123.519914759 22.0
123.572435889 23.0
123.624957020 24.0
123.677478151 27.0
123.729999282 20.0
123.782520412 28.0
123.835041543 20.0
123.887562674 27.0
123.940083804 23.0
123.992604935 24.0
124.045126066 24.0
124.097647197 24.0
124.150168327 24.0
124.202689458 23.0
124.255210589 19.0
124.307731719 15.0
124.360252850 21.0
124.412773981 14.0
124.465295111 22.0
124.517816242 22.0
124.570337373 23.0
124.622858504 13.0
124.675379634 21.0
124.727900765 24.0
124.780421896 17.0
124.832943026 24.0
124.885464157 14.0
124.937985288 29.0
124.990506419 11.0
125.043027549 22.0
125.095548680 22.0
125.148069811 21.0
125.200590941 19.0
125.253112072 31.0
125.305633203 18.0
125.358154333 15.0
125.410675464 19.0
125.463196595 21.0
125.515717726 13.0
125.568238856 15.0
125.620759987 23.0
125.673281118 21.0
125.725802248 22.0
125.778323379 20.0
125.830844510 19.0
125.883365640 15.0
125.935886771 25.0
125.988407902 24.0
126.040929033 27.0
126.093450163 21.0
126.145971294 17.0
126.198492425 24.0
126.251013555 31.0
126.303534686 14.0
126.356055817 24.0
126.408576948 23.0
126.461098078 25.0
126.513619209 23.0
126.566140340 23.0
126.618661470 34.0
126.671182601 27.0
126.723703732 20.0
126.776224862 33.0
126.828745993 21.0
126.881267124 34.0
126.933788255 25.0
126.986309385 18.0
127.038830516 26.0
127.091351647 31.0
127.143872777 22.0
127.196393908 27.0
127.248915039 18.0
127.301436170 25.0
127.353957300 27.0
127.406478431 25.0
127.458999562 22.0
127.511520692 18.0
127.564041823 25.0
127.616562954 15.0
127.669084084 18.0
127.721605215 23.0
127.774126346 24.0
127.826647477 11.0
127.879168607 16.0
127.931689738 22.0
127.984210869 15.0
128.036731999 28.0
128.089253130 17.0
128.141774261 27.0
128.194295391 20.0
128.246816522 25.0
128.299337653 27.0
128.351858784 25.0
128.404379914 17.0
128.456901045 24.0
128.509422176 16.0
128.561943306 27.0
128.614464437 20.0
128.666985568 20.0
128.719506699 23.0
128.772027829 23.0
128.824548960 24.0
128.877070091 17.0
128.929591221 16.0
128.982112352 25.0
129.034633483 14.0
129.087154613 26.0
129.139675744 32.0
129.192196875 22.0
129.244718006 14.0
129.297239136 23.0
129.349760267 15.0
129.402281398 22.0
129.454802528 19.0
129.507323659 19.0
129.559844790 17.0
129.612365921 21.0
129.664887051 20.0
129.717408182 31.0
129.769929313 15.0
129.822450443 25.0
129.874971574 15.0
129.927492705 20.0
129.980013835 21.0
130.032534966 17.0
130.085056097 21.0
130.137577228 18.0
130.190098358 12.0
130.242619489 19.0
130.295140620 26.0
130.347661750 18.0
130.400182881 18.0
130.452704012 18.0
130.505225142 16.0
130.557746273 25.0
130.610267404 22.0
130.662788535 21.0
130.715309665 22.0
130.767830796 21.0
130.820351927 32.0
130.872873057 20.0
130.925394188 19.0
130.977915319 28.0
131.030436450 24.0
131.082957580 19.0
131.135478711 27.0
131.187999842 28.0
131.240520972 25.0
131.293042103 26.0
131.345563234 20.0
131.398084364 23.0
131.450605495 25.0
131.503126626 31.0
131.555647757 29.0
131.608168887 28.0
131.660690018 20.0
131.713211149 23.0
131.765732279 13.0
131.818253410 19.0
131.870774541 20.0
131.923295672 13.0
131.975816802 31.0
132.028337933 29.0
132.080859064 17.0
132.133380194 26.0
132.185901325 27.0
132.238422456 16.0
132.290943586 19.0
132.343464717 23.0
132.395985848 22.0
132.448506979 12.0
132.501028109 24.0
132.553549240 20.0
132.606070371 15.0
132.658591501 21.0
132.711112632 21.0
132.763633763 20.0
132.816154893 24.0
132.868676024 17.0
132.921197155 18.0
132.973718286 21.0
133.026239416 21.0
133.078760547 17.0
133.131281678 17.0
133.183802808 18.0
133.236323939 16.0
133.288845070 27.0
133.341366201 14.0
133.393887331 27.0
133.446408462 20.0
133.498929593 16.0
133.551450723 18.0
133.603971854 21.0
133.656492985 15.0
133.709014115 25.0
133.761535246 21.0
133.814056377 30.0
133.866577508 18.0
133.919098638 30.0
133.971619769 14.0
134.024140900 29.0
134.076662030 21.0
134.129183161 24.0
134.181704292 22.0
134.234225423 18.0
134.286746553 31.0
134.339267684 27.0
134.391788815 15.0
134.444309945 18.0
134.496831076 33.0
134.549352207 19.0
134.601873337 20.0
134.654394468 17.0
134.706915599 18.0
134.759436730 24.0
134.811957860 22.0
134.864478991 26.0
134.917000122 22.0
134.969521252 26.0
135.022042383 21.0
135.074563514 24.0
135.127084644 24.0
135.179605775 28.0
135.232126906 27.0
135.284648037 24.0
135.337169167 22.0
135.389690298 23.0
135.442211429 26.0
135.494732559 36.0
135.547253690 17.0
135.599774821 31.0
135.652295952 15.0
135.704817082 27.0
135.757338213 18.0
135.809859344 25.0
135.862380474 22.0
135.914901605 22.0
135.967422736 19.0
136.019943866 18.0
136.072464997 10.0
136.124986128 22.0
136.177507259 14.0
136.230028389 23.0
136.282549520 24.0
136.335070651 18.0
136.387591781 19.0
136.440112912 18.0
136.492634043 14.0
136.545155174 24.0
136.597676304 26.0
136.650197435 23.0
136.702718566 33.0
136.755239696 28.0
136.807760827 15.0
136.860281958 22.0
136.912803088 24.0
136.965324219 23.0
137.017845350 18.0
137.070366481 20.0
137.122887611 25.0
137.175408742 20.0
137.227929873 24.0
137.280451003 17.0
137.332972134 16.0
137.385493265 25.0
137.438014395 16.0
137.490535526 24.0
137.543056657 14.0
137.595577788 16.0
137.648098918 14.0
137.700620049 22.0
137.753141180 14.0
137.805662310 29.0
137.858183441 28.0
137.910704572 18.0
137.963225703 23.0
138.015746833 21.0
138.068267964 31.0
138.120789095 23.0
138.173310225 25.0
138.225831356 23.0
138.278352487 23.0
138.330873617 16.0
138.383394748 25.0
138.435915879 37.0
138.488437010 24.0
138.540958140 16.0
138.593479271 19.0
138.646000402 13.0
138.698521532 23.0
138.751042663 22.0
138.803563794 21.0
138.856084925 13.0
138.908606055 22.0
138.961127186 27.0
139.013648317 20.0
139.066169447 24.0
139.118690578 25.0
139.171211709 24.0
139.223732839 16.0
139.276253970 29.0
139.328775101 30.0
139.381296232 34.0
139.433817362 21.0
139.486338493 23.0
139.538859624 25.0
139.591380754 22.0
139.643901885 32.0
139.696423016 21.0
139.748944146 21.0
139.801465277 17.0
139.853986408 28.0
139.906507539 29.0
139.959028669 19.0
140.011549800 22.0
