2.091060570 47.0
2.143581701 46.0
2.196102831 45.0
2.248623962 47.0
2.301145093 54.0
2.353666224 66.0
2.406187354 52.0
2.458708485 60.0
2.511229616 74.0
2.563750746 70.0
2.616271877 45.0
2.668793008 58.0
2.721314138 56.0
2.773835269 57.0
2.826356400 65.0
2.878877531 79.0
2.931398661 52.0
2.983919792 74.0
3.036440923 57.0
3.088962053 58.0
3.141483184 69.0
3.194004315 74.0
3.246525445 79.0
3.299046576 59.0
3.351567707 75.0
3.404088838 76.0
3.456609968 77.0
3.509131099 61.0
3.561652230 68.0
3.614173360 75.0
3.666694491 75.0
3.719215622 77.0
3.771736753 69.0
3.824257883 91.0
3.876779014 72.0
3.929300145 75.0
3.981821275 82.0
4.034342406 93.0
4.086863537 83.0
4.139384667 88.0
4.191905798 100.0
4.244426929 86.0
4.296948060 67.0
4.349469190 80.0
4.401990321 80.0
4.454511452 83.0
4.507032582 92.0
4.559553713 83.0
4.612074844 85.0
4.664595975 93.0
4.717117105 74.0
4.769638236 85.0
4.822159367 74.0
4.874680497 82.0
4.927201628 75.0
4.979722759 77.0
5.032243889 96.0
5.084765020 85.0
5.137286151 97.0
5.189807282 101.0
5.242328412 92.0
5.294849543 101.0
5.347370674 84.0
5.399891804 92.0
5.452412935 83.0
5.504934066 100.0
5.557455196 83.0
5.609976327 112.0
5.662497458 98.0
5.715018589 93.0
5.767539719 109.0
5.820060850 93.0
5.872581981 114.0
5.925103111 123.0
5.977624242 120.0
6.030145373 114.0
6.082666504 116.0
6.135187634 116.0
6.187708765 140.0
6.240229896 150.0
6.292751026 157.0
6.345272157 164.0
6.397793288 205.0
6.450314418 223.0
6.502835549 252.0
6.555356680 299.0
6.607877811 399.0
6.660398941 509.0
6.712920072 624.0
6.765441203 858.0
6.817962333 1123.0
6.870483464 1334.0
6.923004595 1167.0
6.975525726 745.0
7.028046856 472.0
7.080567987 294.0
7.133089118 231.0
7.185610248 208.0
7.238131379 151.0
7.290652510 163.0
7.343173640 154.0
7.395694771 149.0
7.448215902 123.0
7.500737033 120.0
7.553258163 144.0
7.605779294 129.0
7.658300425 110.0
7.710821555 112.0
7.763342686 120.0
7.815863817 112.0
7.868384947 115.0
7.920906078 84.0
7.973427209 105.0
8.025948340 87.0
8.078469470 105.0
8.130990601 117.0
8.183511732 107.0
8.236032862 122.0
8.288553993 127.0
8.341075124 109.0
8.393596255 118.0
8.446117385 112.0
8.498638516 108.0
8.551159647 108.0
8.603680777 121.0
8.656201908 107.0
8.708723039 134.0
8.761244169 97.0
8.813765300 109.0
8.866286431 155.0
8.918807562 129.0
8.971328692 121.0
9.023849823 120.0
9.076370954 119.0
9.128892084 119.0
9.181413215 130.0
9.233934346 125.0
9.286455477 107.0
9.338976607 127.0
9.391497738 133.0
9.444018869 116.0
9.496539999 126.0
9.549061130 128.0
9.601582261 122.0
9.654103391 137.0
9.706624522 127.0
9.759145653 119.0
9.811666784 120.0
9.864187914 139.0
9.916709045 110.0
9.969230176 112.0
10.021751306 127.0
10.074272437 128.0
10.126793568 149.0
10.179314698 130.0
10.231835829 119.0
10.284356960 135.0
10.336878091 124.0
10.389399221 138.0
10.441920352 146.0
10.494441483 116.0
10.546962613 133.0
10.599483744 160.0
10.652004875 157.0
10.704526006 153.0
10.757047136 131.0
10.809568267 162.0
10.862089398 203.0
10.914610528 186.0
10.967131659 245.0
11.019652790 304.0
11.072173920 389.0
11.124695051 494.0
11.177216182 645.0
11.229737313 814.0
11.282258443 910.0
11.334779574 848.0
11.387300705 556.0
11.439821835 432.0
11.492342966 372.0
11.544864097 267.0
11.597385228 217.0
11.649906358 208.0
11.702427489 172.0
11.754948620 183.0
11.807469750 154.0
11.859990881 152.0
11.912512012 148.0
11.965033142 155.0
12.017554273 123.0
12.070075404 159.0
12.122596535 160.0
12.175117665 138.0
12.227638796 160.0
12.280159927 200.0
12.332681057 226.0
12.385202188 226.0
12.437723319 330.0
12.490244449 475.0
12.542765580 592.0
12.595286711 284.0
12.647807842 175.0
12.700328972 150.0
12.752850103 153.0
12.805371234 127.0
12.857892364 150.0
12.910413495 148.0
12.962934626 153.0
13.015455757 157.0
13.067976887 145.0
13.120498018 155.0
13.173019149 144.0
13.225540279 155.0
13.278061410 154.0
13.330582541 136.0
13.383103671 172.0
13.435624802 158.0
13.488145933 158.0
13.540667064 175.0
13.593188194 196.0
13.645709325 194.0
13.698230456 190.0
13.750751586 254.0
13.803272717 281.0
13.855793848 276.0
13.908314979 221.0
13.960836109 197.0
14.013357240 183.0
14.065878371 180.0
14.118399501 170.0
14.170920632 146.0
14.223441763 162.0
14.275962893 166.0
14.328484024 167.0
14.381005155 173.0
14.433526286 190.0
14.486047416 187.0
14.538568547 163.0
14.591089678 167.0
14.643610808 160.0
14.696131939 181.0
14.748653070 178.0
14.801174200 153.0
14.853695331 181.0
14.906216462 173.0
14.958737593 148.0
15.011258723 185.0
15.063779854 155.0
15.116300985 168.0
15.168822115 184.0
15.221343246 181.0
15.273864377 157.0
15.326385508 160.0
15.378906638 162.0
15.431427769 150.0
15.483948900 157.0
15.536470030 181.0
15.588991161 157.0
15.641512292 167.0
15.694033422 146.0
15.746554553 186.0
15.799075684 178.0
15.851596815 160.0
15.904117945 147.0
15.956639076 162.0
16.009160207 168.0
16.061681337 184.0
16.114202468 176.0
16.166723599 169.0
16.219244730 196.0
16.271765860 211.0
16.324286991 277.0
16.376808122 416.0
16.429329252 403.0
16.481850383 278.0
16.534371514 212.0
16.586892644 224.0
16.639413775 208.0
16.691934906 226.0
16.744456037 186.0
16.796977167 212.0
16.849498298 195.0
16.902019429 182.0
16.954540559 211.0
17.007061690 174.0
17.059582821 209.0
17.112103951 252.0
17.164625082 197.0
17.217146213 154.0
17.269667344 184.0
17.322188474 184.0
17.374709605 187.0
17.427230736 153.0
17.479751866 180.0
17.532272997 186.0
17.584794128 179.0
17.637315259 228.0
17.689836389 265.0
17.742357520 341.0
17.794878651 476.0
17.847399781 805.0
17.899920912 1157.0
17.952442043 1118.0
18.004963173 683.0
18.057484304 360.0
18.110005435 242.0
18.162526566 266.0
18.215047696 242.0
18.267568827 252.0
18.320089958 219.0
18.372611088 212.0
18.425132219 196.0
18.477653350 199.0
18.530174481 183.0
18.582695611 205.0
18.635216742 186.0
18.687737873 176.0
18.740259003 176.0
18.792780134 181.0
18.845301265 195.0
18.897822395 236.0
18.950343526 278.0
19.002864657 373.0
19.055385788 594.0
19.107906918 862.0
19.160428049 866.0
19.212949180 498.0
19.265470310 320.0
19.317991441 348.0
19.370512572 395.0
19.423033702 575.0
19.475554833 685.0
19.528075964 987.0
19.580597095 1187.0
19.633118225 811.0
19.685639356 429.0
19.738160487 296.0
19.790681617 400.0
19.843202748 555.0
19.895723879 984.0
19.948245010 1760.0
20.000766140 1969.0
20.053287271 1142.0
20.105808402 371.0
20.158329532 240.0
20.210850663 243.0
20.263371794 265.0
20.315892924 257.0
20.368414055 235.0
20.420935186 258.0
20.473456317 301.0
20.525977447 333.0
20.578498578 352.0
20.631019709 446.0
20.683540839 526.0
20.736061970 522.0
20.788583101 640.0
20.841104232 610.0
20.893625362 441.0
20.946146493 314.0
20.998667624 308.0
21.051188754 307.0
21.103709885 351.0
21.156231016 475.0
21.208752146 659.0
21.261273277 610.0
21.313794408 368.0
21.366315539 277.0
21.418836669 262.0
21.471357800 209.0
21.523878931 248.0
21.576400061 258.0
21.628921192 217.0
21.681442323 235.0
21.733963453 285.0
21.786484584 282.0
21.839005715 305.0
21.891526846 307.0
21.944047976 370.0
21.996569107 399.0
22.049090238 354.0
22.101611368 436.0
22.154132499 452.0
22.206653630 432.0
22.259174761 434.0
22.311695891 431.0
22.364217022 387.0
22.416738153 387.0
22.469259283 414.0
22.521780414 431.0
22.574301545 421.0
22.626822675 468.0
22.679343806 430.0
22.731864937 475.0
22.784386068 477.0
22.836907198 437.0
22.889428329 369.0
22.941949460 322.0
22.994470590 283.0
23.046991721 331.0
23.099512852 298.0
23.152033983 300.0
23.204555113 284.0
23.257076244 267.0
23.309597375 254.0
23.362118505 256.0
23.414639636 232.0
23.467160767 246.0
23.519681897 238.0
23.572203028 227.0
23.624724159 271.0
23.677245290 254.0
23.729766420 311.0
23.782287551 344.0
23.834808682 264.0
23.887329812 235.0
23.939850943 205.0
23.992372074 191.0
24.044893204 233.0
24.097414335 196.0
24.149935466 208.0
24.202456597 237.0
24.254977727 248.0
24.307498858 248.0
24.360019989 306.0
24.412541119 291.0
24.465062250 311.0
24.517583381 342.0
24.570104512 299.0
24.622625642 306.0
24.675146773 377.0
24.727667904 380.0
24.780189034 451.0
24.832710165 418.0
24.885231296 381.0
24.937752426 418.0
24.990273557 387.0
25.042794688 361.0
25.095315819 327.0
25.147836949 293.0
25.200358080 330.0
25.252879211 304.0
25.305400341 245.0
25.357921472 235.0
25.410442603 230.0
25.462963733 224.0
25.515484864 244.0
25.568005995 287.0
25.620527126 285.0
25.673048256 252.0
25.725569387 191.0
25.778090518 232.0
25.830611648 195.0
25.883132779 204.0
25.935653910 217.0
25.988175041 204.0
26.040696171 198.0
26.093217302 216.0
26.145738433 246.0
26.198259563 269.0
26.250780694 267.0
26.303301825 203.0
26.355822955 169.0
26.408344086 178.0
26.460865217 179.0
26.513386348 206.0
26.565907478 212.0
26.618428609 172.0
26.670949740 205.0
26.723470870 217.0
26.775992001 195.0
26.828513132 233.0
26.881034263 271.0
26.933555393 296.0
26.986076524 316.0
27.038597655 372.0
27.091118785 376.0
27.143639916 340.0
27.196161047 373.0
27.248682177 388.0
27.301203308 301.0
27.353724439 339.0
27.406245570 284.0
27.458766700 294.0
27.511287831 350.0
27.563808962 293.0
27.616330092 283.0
27.668851223 237.0
27.721372354 243.0
27.773893484 229.0
27.826414615 239.0
27.878935746 237.0
27.931456877 250.0
27.983978007 268.0
28.036499138 253.0
28.089020269 295.0
28.141541399 278.0
28.194062530 257.0
28.246583661 219.0
28.299104792 225.0
28.351625922 210.0
28.404147053 195.0
28.456668184 206.0
28.509189314 223.0
28.561710445 194.0
28.614231576 163.0
28.666752706 158.0
28.719273837 167.0
28.771794968 157.0
28.824316099 141.0
28.876837229 153.0
28.929358360 151.0
28.981879491 179.0
29.034400621 182.0
29.086921752 179.0
29.139442883 143.0
29.191964014 157.0
29.244485144 148.0
29.297006275 143.0
29.349527406 164.0
29.402048536 154.0
29.454569667 128.0
29.507090798 130.0
29.559611928 130.0
29.612133059 136.0
29.664654190 121.0
29.717175321 105.0
29.769696451 124.0
29.822217582 143.0
29.874738713 146.0
29.927259843 132.0
29.979780974 144.0
30.032302105 143.0
30.084823235 150.0
30.137344366 137.0
30.189865497 149.0
30.242386628 146.0
30.294907758 170.0
30.347428889 168.0
30.399950020 160.0
30.452471150 129.0
30.504992281 143.0
30.557513412 139.0
30.610034543 119.0
30.662555673 151.0
30.715076804 126.0
30.767597935 115.0
30.820119065 81.0
30.872640196 110.0
30.925161327 134.0
30.977682457 147.0
31.030203588 146.0
31.082724719 162.0
31.135245850 116.0
31.187766980 97.0
31.240288111 92.0
31.292809242 110.0
31.345330372 94.0
31.397851503 127.0
31.450372634 137.0
31.502893765 129.0
31.555414895 94.0
31.607936026 114.0
31.660457157 122.0
31.712978287 128.0
31.765499418 122.0
31.818020549 98.0
31.870541679 108.0
31.923062810 104.0
31.975583941 81.0
32.028105072 105.0
32.080626202 102.0
32.133147333 107.0
32.185668464 118.0
32.238189594 98.0
32.290710725 98.0
32.343231856 101.0
32.395752986 96.0
32.448274117 105.0
32.500795248 118.0
32.553316379 103.0
32.605837509 106.0
32.658358640 125.0
32.710879771 100.0
32.763400901 112.0
32.815922032 137.0
32.868443163 123.0
32.920964294 110.0
32.973485424 115.0
33.026006555 102.0
33.078527686 122.0
33.131048816 148.0
33.183569947 151.0
33.236091078 128.0
33.288612208 93.0
33.341133339 97.0
33.393654470 87.0
33.446175601 103.0
33.498696731 108.0
33.551217862 80.0
33.603738993 99.0
33.656260123 100.0
33.708781254 105.0
33.761302385 96.0
33.813823516 85.0
33.866344646 93.0
33.918865777 109.0
33.971386908 66.0
34.023908038 82.0
34.076429169 114.0
34.128950300 86.0
34.181471430 103.0
34.233992561 92.0
34.286513692 105.0
34.339034823 102.0
34.391555953 87.0
34.444077084 100.0
34.496598215 113.0
34.549119345 119.0
34.601640476 144.0
34.654161607 104.0
34.706682737 88.0
34.759203868 91.0
34.811724999 116.0
34.864246130 128.0
34.916767260 145.0
34.969288391 151.0
35.021809522 125.0
35.074330652 116.0
35.126851783 80.0
35.179372914 102.0
35.231894045 88.0
35.284415175 103.0
35.336936306 118.0
35.389457437 95.0
35.441978567 85.0
35.494499698 112.0
35.547020829 115.0
35.599541959 121.0
35.652063090 137.0
35.704584221 90.0
35.757105352 109.0
35.809626482 83.0
35.862147613 80.0
35.914668744 91.0
35.967189874 104.0
36.019711005 85.0
36.072232136 108.0
36.124753267 125.0
36.177274397 176.0
36.229795528 157.0
36.282316659 178.0
36.334837789 112.0
36.387358920 114.0
36.439880051 117.0
36.492401181 131.0
36.544922312 112.0
36.597443443 115.0
36.649964574 104.0
36.702485704 124.0
36.755006835 104.0
36.807527966 118.0
36.860049096 170.0
36.912570227 215.0
36.965091358 185.0
37.017612488 142.0
37.070133619 127.0
37.122654750 102.0
37.175175881 88.0
37.227697011 90.0
37.280218142 105.0
37.332739273 93.0
37.385260403 92.0
37.437781534 135.0
37.490302665 217.0
37.542823796 328.0
37.595344926 321.0
37.647866057 178.0
37.700387188 126.0
37.752908318 127.0
37.805429449 142.0
37.857950580 110.0
37.910471710 102.0
37.962992841 121.0
38.015513972 112.0
38.068035103 117.0
38.120556233 147.0
38.173077364 167.0
38.225598495 184.0
38.278119625 148.0
38.330640756 107.0
38.383161887 103.0
38.435683018 103.0
38.488204148 102.0
38.540725279 117.0
38.593246410 161.0
38.645767540 124.0
38.698288671 115.0
38.750809802 94.0
38.803330932 107.0
38.855852063 127.0
38.908373194 101.0
38.960894325 97.0
39.013415455 82.0
39.065936586 117.0
39.118457717 111.0
39.170978847 105.0
39.223499978 87.0
39.276021109 98.0
39.328542239 92.0
39.381063370 117.0
39.433584501 118.0
39.486105632 121.0
39.538626762 96.0
39.591147893 93.0
39.643669024 106.0
39.696190154 83.0
39.748711285 106.0
39.801232416 119.0
39.853753547 151.0
39.906274677 155.0
39.958795808 115.0
40.011316939 111.0
40.063838069 99.0
40.116359200 74.0
40.168880331 72.0
40.221401461 85.0
40.273922592 98.0
40.326443723 84.0
40.378964854 82.0
40.431485984 88.0
40.484007115 89.0
40.536528246 77.0
40.589049376 93.0
40.641570507 122.0
40.694091638 98.0
40.746612769 99.0
40.799133899 97.0
40.851655030 68.0
40.904176161 93.0
40.956697291 101.0
41.009218422 94.0
41.061739553 90.0
41.114260683 102.0
41.166781814 76.0
41.219302945 73.0
41.271824076 84.0
41.324345206 95.0
41.376866337 84.0
41.429387468 63.0
41.481908598 77.0
41.534429729 83.0
41.586950860 72.0
41.639471990 79.0
41.691993121 87.0
41.744514252 85.0
41.797035383 82.0
41.849556513 61.0
41.902077644 80.0
41.954598775 78.0
42.007119905 71.0
42.059641036 78.0
42.112162167 72.0
42.164683298 87.0
42.217204428 81.0
42.269725559 81.0
42.322246690 69.0
42.374767820 91.0
42.427288951 89.0
42.479810082 79.0
42.532331212 63.0
42.584852343 71.0
42.637373474 65.0
42.689894605 74.0
42.742415735 101.0
42.794936866 82.0
42.847457997 80.0
42.899979127 91.0
42.952500258 76.0
43.005021389 86.0
43.057542520 111.0
43.110063650 83.0
43.162584781 98.0
43.215105912 65.0
43.267627042 83.0
43.320148173 82.0
43.372669304 73.0
43.425190434 81.0
43.477711565 67.0
43.530232696 73.0
43.582753827 73.0
43.635274957 66.0
43.687796088 74.0
43.740317219 74.0
43.792838349 62.0
43.845359480 72.0
43.897880611 75.0
43.950401741 63.0
44.002922872 69.0
44.055444003 69.0
44.107965134 85.0
44.160486264 93.0
44.213007395 84.0
44.265528526 80.0
44.318049656 76.0
44.370570787 95.0
44.423091918 70.0
44.475613049 68.0
44.528134179 71.0
44.580655310 69.0
44.633176441 67.0
44.685697571 72.0
44.738218702 74.0
44.790739833 70.0
44.843260963 67.0
44.895782094 83.0
44.948303225 72.0
45.000824356 75.0
45.053345486 89.0
45.105866617 72.0
45.158387748 83.0
45.210908878 90.0
45.263430009 84.0
45.315951140 70.0
45.368472271 81.0
45.420993401 71.0
45.473514532 63.0
45.526035663 77.0
45.578556793 72.0
45.631077924 72.0
45.683599055 81.0
45.736120185 95.0
45.788641316 102.0
45.841162447 90.0
45.893683578 81.0
45.946204708 68.0
45.998725839 59.0
46.051246970 56.0
46.103768100 75.0
46.156289231 80.0
46.208810362 84.0
46.261331492 79.0
46.313852623 78.0
46.366373754 79.0
46.418894885 81.0
46.471416015 82.0
46.523937146 77.0
46.576458277 69.0
46.628979407 78.0
46.681500538 66.0
46.734021669 56.0
46.786542800 55.0
46.839063930 74.0
46.891585061 72.0
46.944106192 61.0
46.996627322 50.0
47.049148453 80.0
47.101669584 72.0
47.154190714 81.0
47.206711845 82.0
47.259232976 70.0
47.311754107 76.0
47.364275237 73.0
47.416796368 66.0
47.469317499 70.0
47.521838629 69.0
47.574359760 56.0
47.626880891 58.0
47.679402022 52.0
47.731923152 61.0
47.784444283 61.0
47.836965414 63.0
47.889486544 82.0
47.942007675 97.0
47.994528806 77.0
48.047049936 66.0
48.099571067 70.0
48.152092198 52.0
48.204613329 57.0
48.257134459 49.0
48.309655590 56.0
48.362176721 64.0
48.414697851 45.0
48.467218982 50.0
48.519740113 59.0
48.572261243 51.0
48.624782374 51.0
48.677303505 52.0
48.729824636 53.0
48.782345766 63.0
48.834866897 64.0
48.887388028 76.0
48.939909158 48.0
48.992430289 66.0
49.044951420 69.0
49.097472551 53.0
49.149993681 55.0
49.202514812 54.0
49.255035943 62.0
49.307557073 61.0
49.360078204 54.0
49.412599335 75.0
49.465120465 74.0
49.517641596 72.0
49.570162727 54.0
49.622683858 57.0
49.675204988 75.0
49.727726119 66.0
49.780247250 76.0
49.832768380 72.0
49.885289511 76.0
49.937810642 70.0
49.990331772 63.0
50.042852903 60.0
50.095374034 61.0
50.147895165 65.0
50.200416295 71.0
50.252937426 87.0
50.305458557 67.0
50.357979687 83.0
50.410500818 65.0
50.463021949 77.0
50.515543080 70.0
50.568064210 48.0
50.620585341 53.0
50.673106472 66.0
50.725627602 66.0
50.778148733 72.0
50.830669864 64.0
50.883190994 59.0
50.935712125 70.0
50.988233256 49.0
51.040754387 76.0
51.093275517 60.0
51.145796648 66.0
51.198317779 58.0
51.250838909 68.0
51.303360040 52.0
51.355881171 58.0
51.408402302 70.0
51.460923432 61.0
51.513444563 54.0
51.565965694 64.0
51.618486824 62.0
51.671007955 64.0
51.723529086 64.0
51.776050216 49.0
51.828571347 58.0
51.881092478 75.0
51.933613609 67.0
51.986134739 63.0
52.038655870 60.0
52.091177001 48.0
52.143698131 54.0
52.196219262 47.0
52.248740393 52.0
52.301261523 61.0
52.353782654 47.0
52.406303785 42.0
52.458824916 51.0
52.511346046 52.0
52.563867177 43.0
52.616388308 50.0
52.668909438 73.0
52.721430569 48.0
52.773951700 54.0
52.826472831 39.0
52.878993961 44.0
52.931515092 42.0
52.984036223 43.0
53.036557353 47.0
53.089078484 49.0
53.141599615 50.0
53.194120745 51.0
53.246641876 42.0
53.299163007 36.0
53.351684138 55.0
53.404205268 48.0
53.456726399 47.0
53.509247530 57.0
53.561768660 30.0
53.614289791 53.0
53.666810922 61.0
53.719332053 72.0
53.771853183 49.0
53.824374314 69.0
53.876895445 53.0
53.929416575 39.0
53.981937706 65.0
54.034458837 49.0
54.086979967 68.0
54.139501098 47.0
54.192022229 50.0
54.244543360 47.0
54.297064490 49.0
54.349585621 53.0
54.402106752 49.0
54.454627882 34.0
54.507149013 55.0
54.559670144 45.0
54.612191274 60.0
54.664712405 69.0
54.717233536 49.0
54.769754667 55.0
54.822275797 41.0
54.874796928 41.0
54.927318059 40.0
54.979839189 44.0
55.032360320 55.0
55.084881451 43.0
55.137402582 55.0
55.189923712 46.0
55.242444843 49.0
55.294965974 44.0
55.347487104 44.0
55.400008235 47.0
55.452529366 45.0
55.505050496 58.0
55.557571627 53.0
55.610092758 35.0
55.662613889 43.0
55.715135019 55.0
55.767656150 47.0
55.820177281 51.0
55.872698411 36.0
55.925219542 43.0
55.977740673 70.0
56.030261804 53.0
56.082782934 47.0
56.135304065 46.0
56.187825196 46.0
56.240346326 56.0
56.292867457 39.0
56.345388588 55.0
56.397909718 58.0
56.450430849 58.0
56.502951980 51.0
56.555473111 44.0
56.607994241 43.0
56.660515372 45.0
56.713036503 65.0
56.765557633 55.0
56.818078764 34.0
56.870599895 36.0
56.923121025 37.0
56.975642156 25.0
57.028163287 47.0
57.080684418 34.0
57.133205548 46.0
57.185726679 42.0
57.238247810 35.0
57.290768940 35.0
57.343290071 30.0
57.395811202 32.0
57.448332333 40.0
57.500853463 55.0
57.553374594 34.0
57.605895725 30.0
57.658416855 30.0
57.710937986 39.0
57.763459117 52.0
57.815980247 38.0
57.868501378 27.0
57.921022509 25.0
57.973543640 32.0
58.026064770 44.0
58.078585901 53.0
58.131107032 46.0
58.183628162 65.0
58.236149293 48.0
58.288670424 57.0
58.341191555 37.0
58.393712685 57.0
58.446233816 48.0
58.498754947 29.0
58.551276077 36.0
58.603797208 32.0
58.656318339 46.0
58.708839469 44.0
58.761360600 41.0
58.813881731 31.0
58.866402862 41.0
58.918923992 43.0
58.971445123 43.0
59.023966254 41.0
59.076487384 35.0
59.129008515 36.0
59.181529646 32.0
59.234050776 35.0
59.286571907 34.0
59.339093038 38.0
59.391614169 41.0
59.444135299 45.0
59.496656430 43.0
59.549177561 36.0
59.601698691 39.0
59.654219822 42.0
59.706740953 31.0
59.759262084 32.0
59.811783214 40.0
59.864304345 30.0
59.916825476 41.0
59.969346606 41.0
60.021867737 37.0
60.074388868 46.0
60.126909998 35.0
60.179431129 38.0
60.231952260 35.0
60.284473391 25.0
60.336994521 42.0
60.389515652 41.0
60.442036783 46.0
60.494557913 57.0
60.547079044 40.0
60.599600175 44.0
60.652121306 40.0
60.704642436 38.0
60.757163567 41.0
60.809684698 35.0
60.862205828 40.0
60.914726959 41.0
60.967248090 43.0
61.019769220 41.0
61.072290351 32.0
61.124811482 41.0
61.177332613 34.0
61.229853743 26.0
61.282374874 37.0
61.334896005 35.0
61.387417135 28.0
61.439938266 38.0
61.492459397 27.0
61.544980527 28.0
61.597501658 39.0
61.650022789 21.0
61.702543920 30.0
61.755065050 22.0
61.807586181 22.0
61.860107312 43.0
61.912628442 38.0
61.965149573 42.0
62.017670704 34.0
62.070191835 37.0
62.122712965 31.0
62.175234096 43.0
62.227755227 35.0
62.280276357 32.0
62.332797488 48.0
62.385318619 29.0
62.437839749 24.0
62.490360880 26.0
62.542882011 21.0
62.595403142 34.0
62.647924272 31.0
62.700445403 34.0
62.752966534 35.0
62.805487664 38.0
62.858008795 32.0
62.910529926 38.0
62.963051057 36.0
63.015572187 37.0
63.068093318 32.0
63.120614449 21.0
63.173135579 35.0
63.225656710 30.0
63.278177841 27.0
63.330698971 30.0
63.383220102 30.0
63.435741233 41.0
63.488262364 45.0
63.540783494 42.0
63.593304625 29.0
63.645825756 35.0
63.698346886 42.0
63.750868017 34.0
63.803389148 34.0
63.855910278 28.0
63.908431409 28.0
63.960952540 32.0
64.013473671 45.0
64.065994801 30.0
64.118515932 36.0
64.171037063 40.0
64.223558193 26.0
64.276079324 34.0
64.328600455 38.0
64.381121586 31.0
64.433642716 18.0
64.486163847 28.0
64.538684978 39.0
64.591206108 30.0
64.643727239 30.0
64.696248370 37.0
64.748769500 38.0
64.801290631 32.0
64.853811762 37.0
64.906332893 26.0
64.958854023 31.0
65.011375154 26.0
65.063896285 31.0
65.116417415 43.0
65.168938546 32.0
65.221459677 32.0
65.273980808 37.0
65.326501938 26.0
65.379023069 35.0
65.431544200 36.0
65.484065330 34.0
65.536586461 49.0
65.589107592 44.0
65.641628722 34.0
65.694149853 30.0
65.746670984 45.0
65.799192115 44.0
65.851713245 29.0
65.904234376 32.0
65.956755507 35.0
66.009276637 44.0
66.061797768 28.0
66.114318899 23.0
66.166840029 28.0
66.219361160 30.0
66.271882291 32.0
66.324403422 27.0
66.376924552 21.0
66.429445683 33.0
66.481966814 16.0
66.534487944 33.0
66.587009075 31.0
66.639530206 33.0
66.692051337 27.0
66.744572467 37.0
66.797093598 27.0
66.849614729 26.0
66.902135859 33.0
66.954656990 34.0
67.007178121 28.0
67.059699251 34.0
67.112220382 29.0
67.164741513 31.0
67.217262644 23.0
67.269783774 36.0
67.322304905 23.0
67.374826036 37.0
67.427347166 21.0
67.479868297 29.0
67.532389428 25.0
67.584910559 30.0
67.637431689 29.0
67.689952820 20.0
67.742473951 27.0
67.794995081 27.0
67.847516212 17.0
67.900037343 22.0
67.952558473 40.0
68.005079604 28.0
68.057600735 34.0
68.110121866 25.0
68.162642996 32.0
68.215164127 31.0
68.267685258 21.0
68.320206388 35.0
68.372727519 38.0
68.425248650 28.0
68.477769780 19.0
68.530290911 24.0
68.582812042 35.0
68.635333173 44.0
68.687854303 24.0
68.740375434 26.0
68.792896565 24.0
68.845417695 35.0
68.897938826 31.0
68.950459957 33.0
69.002981088 18.0
69.055502218 24.0
69.108023349 25.0
69.160544480 34.0
69.213065610 24.0
69.265586741 33.0
69.318107872 36.0
69.370629002 35.0
69.423150133 28.0
69.475671264 25.0
69.528192395 30.0
69.580713525 29.0
69.633234656 26.0
69.685755787 27.0
69.738276917 33.0
69.790798048 27.0
69.843319179 24.0
69.895840310 40.0
69.948361440 33.0
70.000882571 35.0
70.053403702 37.0
70.105924832 22.0
70.158445963 24.0
70.210967094 18.0
70.263488224 29.0
70.316009355 40.0
70.368530486 25.0
70.421051617 37.0
70.473572747 26.0
70.526093878 22.0
70.578615009 24.0
70.631136139 27.0
70.683657270 35.0
70.736178401 26.0
70.788699531 37.0
70.841220662 33.0
70.893741793 33.0
70.946262924 31.0
70.998784054 41.0
71.051305185 45.0
71.103826316 30.0
71.156347446 23.0
71.208868577 21.0
71.261389708 38.0
71.313910839 30.0
71.366431969 24.0
71.418953100 34.0
71.471474231 42.0
71.523995361 41.0
71.576516492 30.0
71.629037623 36.0
71.681558753 25.0
71.734079884 27.0
71.786601015 24.0
71.839122146 31.0
71.891643276 32.0
71.944164407 25.0
71.996685538 28.0
72.049206668 26.0
72.101727799 30.0
72.154248930 24.0
72.206770060 34.0
72.259291191 23.0
72.311812322 23.0
72.364333453 23.0
72.416854583 34.0
72.469375714 25.0
72.521896845 22.0
72.574417975 26.0
72.626939106 35.0
72.679460237 37.0
72.731981368 30.0
72.784502498 36.0
72.837023629 28.0
72.889544760 33.0
72.942065890 37.0
72.994587021 31.0
73.047108152 34.0
73.099629282 24.0
73.152150413 29.0
73.204671544 38.0
73.257192675 28.0
73.309713805 31.0
73.362234936 35.0
73.414756067 28.0
73.467277197 28.0
73.519798328 34.0
73.572319459 35.0
73.624840590 29.0
73.677361720 22.0
73.729882851 24.0
73.782403982 20.0
73.834925112 28.0
73.887446243 36.0
73.939967374 35.0
73.992488504 24.0
74.045009635 33.0
74.097530766 34.0
74.150051897 19.0
74.202573027 38.0
74.255094158 42.0
74.307615289 26.0
74.360136419 32.0
74.412657550 22.0
74.465178681 21.0
74.517699811 27.0
74.570220942 22.0
74.622742073 47.0
74.675263204 38.0
74.727784334 28.0
74.780305465 33.0
74.832826596 33.0
74.885347726 34.0
74.937868857 27.0
74.990389988 28.0
75.042911119 30.0
75.095432249 24.0
75.147953380 35.0
75.200474511 37.0
75.252995641 26.0
75.305516772 37.0
75.358037903 22.0
75.410559033 21.0
75.463080164 34.0
75.515601295 31.0
75.568122426 39.0
75.620643556 20.0
75.673164687 25.0
75.725685818 29.0
75.778206948 35.0
75.830728079 20.0
75.883249210 23.0
75.935770341 36.0
75.988291471 24.0
76.040812602 37.0
76.093333733 20.0
76.145854863 27.0
76.198375994 28.0
76.250897125 37.0
76.303418255 29.0
76.355939386 31.0
76.408460517 31.0
76.460981648 41.0
76.513502778 37.0
76.566023909 33.0
76.618545040 30.0
76.671066170 32.0
76.723587301 47.0
76.776108432 36.0
76.828629562 19.0
76.881150693 36.0
76.933671824 31.0
76.986192955 36.0
77.038714085 28.0
77.091235216 26.0
77.143756347 35.0
77.196277477 35.0
77.248798608 31.0
77.301319739 23.0
77.353840870 35.0
77.406362000 29.0
77.458883131 27.0
77.511404262 31.0
77.563925392 38.0
77.616446523 30.0
77.668967654 31.0
77.721488784 37.0
77.774009915 30.0
77.826531046 27.0
77.879052177 25.0
77.931573307 42.0
77.984094438 30.0
78.036615569 28.0
78.089136699 31.0
78.141657830 37.0
78.194178961 31.0
78.246700092 32.0
78.299221222 24.0
78.351742353 25.0
78.404263484 42.0
78.456784614 26.0
78.509305745 23.0
78.561826876 29.0
78.614348006 26.0
78.666869137 22.0
78.719390268 37.0
78.771911399 27.0
78.824432529 41.0
78.876953660 29.0
78.929474791 38.0
78.981995921 32.0
79.034517052 32.0
79.087038183 25.0
79.139559313 18.0
79.192080444 22.0
79.244601575 30.0
79.297122706 21.0
79.349643836 33.0
79.402164967 31.0
79.454686098 27.0
79.507207228 26.0
79.559728359 26.0
79.612249490 36.0
79.664770621 29.0
79.717291751 38.0
79.769812882 33.0
79.822334013 36.0
79.874855143 34.0
79.927376274 33.0
79.979897405 29.0
80.032418535 16.0
80.084939666 32.0
80.137460797 24.0
80.189981928 36.0
80.242503058 31.0
80.295024189 30.0
80.347545320 28.0
80.400066450 28.0
80.452587581 28.0
80.505108712 30.0
80.557629843 33.0
80.610150973 27.0
80.662672104 28.0
80.715193235 28.0
80.767714365 32.0
80.820235496 20.0
80.872756627 23.0
80.925277757 35.0
80.977798888 31.0
81.030320019 35.0
81.082841150 17.0
81.135362280 26.0
81.187883411 30.0
81.240404542 34.0
81.292925672 22.0
81.345446803 20.0
81.397967934 25.0
81.450489064 30.0
81.503010195 32.0
81.555531326 30.0
81.608052457 28.0
81.660573587 23.0
81.713094718 30.0
81.765615849 28.0
81.818136979 38.0
81.870658110 29.0
81.923179241 27.0
81.975700372 40.0
82.028221502 32.0
82.080742633 41.0
82.133263764 26.0
82.185784894 33.0
82.238306025 27.0
82.290827156 25.0
82.343348286 36.0
82.395869417 26.0
82.448390548 35.0
82.500911679 32.0
82.553432809 28.0
82.605953940 28.0
82.658475071 33.0
82.710996201 23.0
82.763517332 30.0
82.816038463 29.0
82.868559594 20.0
82.921080724 26.0
82.973601855 29.0
83.026122986 30.0
83.078644116 30.0
83.131165247 14.0
83.183686378 28.0
83.236207508 19.0
83.288728639 35.0
83.341249770 27.0
83.393770901 28.0
83.446292031 42.0
83.498813162 31.0
83.551334293 26.0
83.603855423 30.0
83.656376554 29.0
83.708897685 15.0
83.761418815 22.0
83.813939946 21.0
83.866461077 25.0
83.918982208 22.0
83.971503338 28.0
84.024024469 24.0
84.076545600 28.0
84.129066730 23.0
84.181587861 34.0
84.234108992 29.0
84.286630123 26.0
84.339151253 27.0
84.391672384 27.0
84.444193515 32.0
84.496714645 21.0
84.549235776 28.0
84.601756907 38.0
84.654278037 27.0
84.706799168 27.0
84.759320299 31.0
84.811841430 26.0
84.864362560 27.0
84.916883691 20.0
84.969404822 28.0
85.021925952 21.0
85.074447083 24.0
85.126968214 31.0
85.179489345 29.0
85.232010475 17.0
85.284531606 26.0
85.337052737 24.0
85.389573867 26.0
85.442094998 20.0
85.494616129 28.0
85.547137259 28.0
85.599658390 34.0
85.652179521 24.0
85.704700652 25.0
85.757221782 24.0
85.809742913 22.0
85.862264044 26.0
85.914785174 27.0
85.967306305 26.0
86.019827436 25.0
86.072348566 25.0
86.124869697 28.0
86.177390828 28.0
86.229911959 34.0
86.282433089 27.0
86.334954220 35.0
86.387475351 22.0
86.439996481 33.0
86.492517612 19.0
86.545038743 25.0
86.597559874 33.0
86.650081004 32.0
86.702602135 24.0
86.755123266 20.0
86.807644396 17.0
86.860165527 27.0
86.912686658 28.0
86.965207788 22.0
87.017728919 21.0
87.070250050 33.0
87.122771181 22.0
87.175292311 28.0
87.227813442 31.0
87.280334573 38.0
87.332855703 33.0
87.385376834 23.0
87.437897965 16.0
87.490419096 27.0
87.542940226 24.0
87.595461357 22.0
87.647982488 33.0
87.700503618 32.0
87.753024749 21.0
87.805545880 28.0
87.858067010 20.0
87.910588141 40.0
87.963109272 26.0
88.015630403 37.0
88.068151533 15.0
88.120672664 21.0
88.173193795 24.0
88.225714925 24.0
88.278236056 20.0
88.330757187 23.0
88.383278317 26.0
88.435799448 21.0
88.488320579 32.0
88.540841710 18.0
88.593362840 35.0
88.645883971 24.0
88.698405102 24.0
88.750926232 21.0
88.803447363 19.0
88.855968494 19.0
88.908489625 31.0
88.961010755 20.0
89.013531886 26.0
89.066053017 23.0
89.118574147 23.0
89.171095278 34.0
89.223616409 22.0
89.276137539 26.0
89.328658670 20.0
89.381179801 24.0
89.433700932 26.0
89.486222062 33.0
89.538743193 33.0
89.591264324 21.0
89.643785454 25.0
89.696306585 23.0
89.748827716 18.0
89.801348847 31.0
89.853869977 22.0
89.906391108 27.0
89.958912239 27.0
90.011433369 30.0
90.063954500 33.0
90.116475631 19.0
90.168996761 29.0
90.221517892 16.0
90.274039023 27.0
90.326560154 25.0
90.379081284 23.0
90.431602415 29.0
90.484123546 31.0
90.536644676 29.0
90.589165807 23.0
90.641686938 35.0
90.694208068 23.0
90.746729199 32.0
90.799250330 23.0
90.851771461 19.0
90.904292591 29.0
90.956813722 23.0
91.009334853 22.0
91.061855983 22.0
91.114377114 25.0
91.166898245 25.0
91.219419376 22.0
91.271940506 26.0
91.324461637 36.0
91.376982768 23.0
91.429503898 9.0
91.482025029 26.0
91.534546160 20.0
91.587067290 24.0
91.639588421 29.0
91.692109552 25.0
91.744630683 17.0
91.797151813 24.0
91.849672944 23.0
91.902194075 21.0
91.954715205 32.0
92.007236336 28.0
92.059757467 26.0
92.112278598 29.0
92.164799728 24.0
92.217320859 20.0
92.269841990 15.0
92.322363120 20.0
92.374884251 23.0
92.427405382 28.0
92.479926512 26.0
92.532447643 18.0
92.584968774 27.0
92.637489905 27.0
92.690011035 26.0
92.742532166 27.0
92.795053297 20.0
92.847574427 15.0
92.900095558 18.0
92.952616689 15.0
93.005137819 19.0
93.057658950 12.0
93.110180081 21.0
93.162701212 21.0
93.215222342 30.0
93.267743473 15.0
93.320264604 20.0
93.372785734 28.0
93.425306865 28.0
93.477827996 26.0
93.530349127 22.0
93.582870257 27.0
93.635391388 15.0
93.687912519 20.0
93.740433649 27.0
93.792954780 17.0
93.845475911 31.0
93.897997041 12.0
93.950518172 26.0
94.003039303 18.0
94.055560434 18.0
94.108081564 30.0
94.160602695 16.0
94.213123826 19.0
94.265644956 25.0
94.318166087 20.0
94.370687218 26.0
94.423208348 16.0
94.475729479 37.0
94.528250610 19.0
94.580771741 29.0
94.633292871 30.0
94.685814002 19.0
94.738335133 30.0
94.790856263 22.0
94.843377394 23.0
94.895898525 18.0
94.948419656 19.0
95.000940786 17.0
95.053461917 16.0
95.105983048 24.0
95.158504178 16.0
95.211025309 19.0
95.263546440 13.0
95.316067570 19.0
95.368588701 21.0
95.421109832 25.0
95.473630963 17.0
95.526152093 27.0
95.578673224 20.0
95.631194355 16.0
95.683715485 16.0
95.736236616 19.0
95.788757747 23.0
95.841278878 25.0
95.893800008 16.0
95.946321139 20.0
95.998842270 22.0
96.051363400 18.0
96.103884531 15.0
96.156405662 16.0
96.208926792 19.0
96.261447923 19.0
96.313969054 15.0
96.366490185 26.0
96.419011315 17.0
96.471532446 16.0
96.524053577 16.0
96.576574707 17.0
96.629095838 15.0
96.681616969 21.0
96.734138099 25.0
96.786659230 11.0
96.839180361 19.0
96.891701492 26.0
96.944222622 21.0
96.996743753 27.0
97.049264884 24.0
97.101786014 19.0
97.154307145 22.0
97.206828276 20.0
97.259349407 21.0
97.311870537 19.0
97.364391668 20.0
97.416912799 23.0
97.469433929 24.0
97.521955060 19.0
97.574476191 24.0
97.626997321 24.0
97.679518452 24.0
97.732039583 20.0
97.784560714 17.0
97.837081844 17.0
97.889602975 12.0
97.942124106 16.0
97.994645236 27.0
98.047166367 28.0
98.099687498 21.0
98.152208629 27.0
98.204729759 18.0
98.257250890 14.0
98.309772021 20.0
98.362293151 21.0
98.414814282 11.0
98.467335413 23.0
98.519856543 29.0
98.572377674 17.0
98.624898805 27.0
98.677419936 18.0
98.729941066 17.0
98.782462197 20.0
98.834983328 15.0
98.887504458 18.0
98.940025589 30.0
98.992546720 19.0
99.045067850 31.0
99.097588981 15.0
99.150110112 19.0
99.202631243 16.0
99.255152373 16.0
99.307673504 28.0
99.360194635 22.0
99.412715765 21.0
99.465236896 35.0
99.517758027 26.0
99.570279158 13.0
99.622800288 22.0
99.675321419 14.0
99.727842550 20.0
99.780363680 15.0
99.832884811 12.0
99.885405942 20.0
99.937927072 25.0
99.990448203 26.0
100.042969334 17.0
100.095490465 26.0
100.148011595 17.0
100.200532726 24.0
100.253053857 16.0
100.305574987 26.0
100.358096118 14.0
100.410617249 25.0
100.463138380 18.0
100.515659510 25.0
100.568180641 8.0
100.620701772 18.0
100.673222902 25.0
100.725744033 26.0
100.778265164 17.0
100.830786294 23.0
100.883307425 20.0
100.935828556 25.0
100.988349687 15.0
101.040870817 20.0
101.093391948 9.0
101.145913079 25.0
101.198434209 17.0
101.250955340 23.0
101.303476471 25.0
101.355997601 21.0
101.408518732 16.0
101.461039863 18.0
101.513560994 19.0
101.566082124 14.0
101.618603255 17.0
101.671124386 21.0
101.723645516 27.0
101.776166647 19.0
101.828687778 19.0
101.881208909 23.0
101.933730039 17.0
101.986251170 13.0
102.038772301 38.0
102.091293431 19.0
102.143814562 17.0
102.196335693 15.0
102.248856823 14.0
102.301377954 17.0
102.353899085 21.0
102.406420216 14.0
102.458941346 18.0
102.511462477 20.0
102.563983608 24.0
102.616504738 22.0
102.669025869 15.0
102.721547000 21.0
102.774068131 20.0
102.826589261 29.0
102.879110392 19.0
102.931631523 16.0
102.984152653 17.0
103.036673784 19.0
103.089194915 17.0
103.141716045 13.0
103.194237176 17.0
103.246758307 21.0
103.299279438 16.0
103.351800568 19.0
103.404321699 15.0
103.456842830 17.0
103.509363960 15.0
103.561885091 20.0
103.614406222 26.0
103.666927352 8.0
103.719448483 22.0
103.771969614 22.0
103.824490745 14.0
103.877011875 20.0
103.929533006 21.0
103.982054137 23.0
104.034575267 19.0
104.087096398 20.0
104.139617529 17.0
104.192138660 20.0
104.244659790 23.0
104.297180921 21.0
104.349702052 10.0
104.402223182 15.0
104.454744313 22.0
104.507265444 19.0
104.559786574 19.0
104.612307705 14.0
104.664828836 27.0
104.717349967 18.0
104.769871097 22.0
104.822392228 23.0
104.874913359 12.0
104.927434489 13.0
104.979955620 18.0
105.032476751 20.0
105.084997882 17.0
105.137519012 9.0
105.190040143 15.0
105.242561274 21.0
105.295082404 18.0
105.347603535 14.0
105.400124666 20.0
105.452645796 18.0
105.505166927 16.0
105.557688058 15.0
105.610209189 18.0
105.662730319 28.0
105.715251450 13.0
105.767772581 21.0
105.820293711 19.0
105.872814842 20.0
105.925335973 16.0
105.977857103 16.0
106.030378234 15.0
106.082899365 14.0
106.135420496 15.0
106.187941626 21.0
106.240462757 21.0
106.292983888 18.0
106.345505018 19.0
106.398026149 14.0
106.450547280 19.0
106.503068411 20.0
106.555589541 15.0
106.608110672 15.0
106.660631803 18.0
106.713152933 17.0
106.765674064 22.0
106.818195195 14.0
106.870716325 20.0
106.923237456 19.0
106.975758587 25.0
107.028279718 8.0
107.080800848 27.0
107.133321979 22.0
107.185843110 18.0
107.238364240 15.0
107.290885371 23.0
107.343406502 28.0
107.395927633 22.0
107.448448763 19.0
107.500969894 20.0
107.553491025 16.0
107.606012155 16.0
107.658533286 10.0
107.711054417 16.0
107.763575547 16.0
107.816096678 26.0
107.868617809 25.0
107.921138940 17.0
107.973660070 17.0
108.026181201 29.0
108.078702332 18.0
108.131223462 11.0
108.183744593 26.0
108.236265724 15.0
108.288786854 29.0
108.341307985 13.0
108.393829116 28.0
108.446350247 13.0
108.498871377 14.0
108.551392508 18.0
108.603913639 25.0
108.656434769 21.0
108.708955900 18.0
108.761477031 16.0
108.813998162 17.0
108.866519292 12.0
108.919040423 15.0
108.971561554 13.0
109.024082684 13.0
109.076603815 12.0
109.129124946 10.0
109.181646076 18.0
109.234167207 15.0
109.286688338 19.0
109.339209469 18.0
109.391730599 15.0
109.444251730 14.0
109.496772861 24.0
109.549293991 9.0
109.601815122 15.0
109.654336253 17.0
109.706857384 7.0
109.759378514 8.0
109.811899645 18.0
109.864420776 18.0
109.916941906 16.0
109.969463037 21.0
110.021984168 17.0
110.074505298 22.0
110.127026429 17.0
110.179547560 17.0
110.232068691 13.0
110.284589821 15.0
110.337110952 10.0
110.389632083 17.0
110.442153213 19.0
110.494674344 8.0
110.547195475 20.0
110.599716605 32.0
110.652237736 22.0
110.704758867 10.0
110.757279998 10.0
110.809801128 11.0
110.862322259 22.0
110.914843390 8.0
110.967364520 23.0
111.019885651 11.0
111.072406782 18.0
111.124927913 14.0
111.177449043 15.0
111.229970174 18.0
111.282491305 21.0
111.335012435 21.0
111.387533566 22.0
111.440054697 25.0
111.492575827 16.0
111.545096958 7.0
111.597618089 11.0
111.650139220 25.0
111.702660350 24.0
111.755181481 21.0
111.807702612 15.0
111.860223742 15.0
111.912744873 18.0
111.965266004 24.0
112.017787135 17.0
112.070308265 17.0
112.122829396 17.0
112.175350527 24.0
112.227871657 13.0
112.280392788 12.0
112.332913919 20.0
112.385435049 13.0
112.437956180 14.0
112.490477311 22.0
112.542998442 20.0
112.595519572 14.0
112.648040703 10.0
112.700561834 12.0
112.753082964 21.0
112.805604095 15.0
112.858125226 16.0
112.910646356 16.0
112.963167487 20.0
113.015688618 15.0
113.068209749 24.0
113.120730879 12.0
113.173252010 17.0
113.225773141 16.0
113.278294271 23.0
113.330815402 18.0
113.383336533 21.0
113.435857664 22.0
113.488378794 17.0
113.540899925 9.0
113.593421056 13.0
113.645942186 13.0
113.698463317 11.0
113.750984448 11.0
113.803505578 18.0
113.856026709 13.0
113.908547840 19.0
113.961068971 31.0
114.013590101 11.0
114.066111232 22.0
114.118632363 15.0
114.171153493 27.0
114.223674624 11.0
114.276195755 16.0
114.328716886 18.0
114.381238016 17.0
114.433759147 18.0
114.486280278 11.0
114.538801408 15.0
114.591322539 16.0
114.643843670 14.0
114.696364800 15.0
114.748885931 11.0
114.801407062 26.0
114.853928193 11.0
114.906449323 10.0
114.958970454 19.0
115.011491585 20.0
115.064012715 23.0
115.116533846 20.0
115.169054977 12.0
115.221576107 18.0
115.274097238 18.0
115.326618369 15.0
115.379139500 20.0
115.431660630 15.0
115.484181761 12.0
115.536702892 17.0
115.589224022 15.0
115.641745153 15.0
115.694266284 15.0
115.746787415 13.0
115.799308545 15.0
115.851829676 26.0
115.904350807 20.0
115.956871937 18.0
116.009393068 19.0
116.061914199 16.0
116.114435329 17.0
116.166956460 13.0
116.219477591 8.0
116.271998722 10.0
116.324519852 14.0
116.377040983 11.0
116.429562114 21.0
116.482083244 17.0
116.534604375 15.0
116.587125506 18.0
116.639646637 13.0
116.692167767 14.0
116.744688898 17.0
116.797210029 21.0
116.849731159 23.0
116.902252290 17.0
116.954773421 30.0
117.007294551 13.0
117.059815682 24.0
117.112336813 16.0
117.164857944 12.0
117.217379074 10.0
117.269900205 22.0
117.322421336 12.0
117.374942466 13.0
117.427463597 18.0
117.479984728 27.0
117.532505858 19.0
117.585026989 18.0
117.637548120 15.0
117.690069251 17.0
117.742590381 16.0
117.795111512 20.0
117.847632643 16.0
117.900153773 14.0
117.952674904 18.0
118.005196035 25.0
118.057717166 13.0
118.110238296 13.0
118.162759427 20.0
118.215280558 9.0
118.267801688 22.0
118.320322819 11.0
118.372843950 22.0
118.425365080 15.0
118.477886211 18.0
118.530407342 8.0
118.582928473 16.0
118.635449603 13.0
118.687970734 20.0
118.740491865 15.0
118.793012995 23.0
118.845534126 14.0
118.898055257 16.0
118.950576387 22.0
119.003097518 28.0
119.055618649 12.0
119.108139780 12.0
119.160660910 15.0
119.213182041 19.0
119.265703172 14.0
119.318224302 22.0
119.370745433 24.0
119.423266564 21.0
119.475787695 16.0
119.528308825 25.0
119.580829956 13.0
119.633351087 25.0
119.685872217 22.0
119.738393348 17.0
119.790914479 18.0
119.843435609 21.0
119.895956740 8.0
119.948477871 22.0
120.000999002 12.0
120.053520132 14.0
120.106041263 21.0
120.158562394 14.0
120.211083524 11.0
120.263604655 20.0
120.316125786 21.0
120.368646917 14.0
120.421168047 16.0
120.473689178 17.0
120.526210309 11.0
120.578731439 13.0
120.631252570 18.0
120.683773701 14.0
120.736294831 15.0
120.788815962 17.0
120.841337093 13.0
120.893858224 10.0
120.946379354 15.0
120.998900485 23.0
121.051421616 15.0
121.103942746 24.0
121.156463877 16.0
121.208985008 19.0
121.261506138 14.0
121.314027269 27.0
121.366548400 17.0
121.419069531 12.0
121.471590661 10.0
121.524111792 16.0
121.576632923 10.0
121.629154053 16.0
121.681675184 16.0
121.734196315 14.0
121.786717446 20.0
121.839238576 17.0
121.891759707 13.0
121.944280838 25.0
121.996801968 23.0
122.049323099 11.0
122.101844230 14.0
122.154365360 24.0
122.206886491 11.0
122.259407622 22.0
122.311928753 20.0
122.364449883 24.0
122.416971014 18.0
122.469492145 17.0
122.522013275 17.0
122.574534406 12.0
122.627055537 13.0
122.679576668 27.0
122.732097798 22.0
122.784618929 13.0
122.837140060 21.0
122.889661190 14.0
122.942182321 14.0
122.994703452 16.0
123.047224582 16.0
123.099745713 22.0
123.152266844 16.0
123.204787975 22.0
123.257309105 13.0
123.309830236 21.0
123.362351367 18.0
123.414872497 18.0
123.467393628 24.0
123.519914759 18.0
123.572435889 25.0
123.624957020 18.0
123.677478151 13.0
123.729999282 15.0
123.782520412 19.0
123.835041543 14.0
123.887562674 14.0
123.940083804 14.0
123.992604935 13.0
124.045126066 23.0
124.097647197 19.0
124.150168327 16.0
124.202689458 17.0
124.255210589 30.0
124.307731719 15.0
124.360252850 18.0
124.412773981 16.0
124.465295111 19.0
124.517816242 21.0
124.570337373 18.0
124.622858504 12.0
124.675379634 22.0
124.727900765 9.0
124.780421896 19.0
124.832943026 17.0
124.885464157 13.0
124.937985288 13.0
124.990506419 14.0
125.043027549 19.0
125.095548680 20.0
125.148069811 18.0
125.200590941 24.0
125.253112072 11.0
125.305633203 13.0
125.358154333 21.0
125.410675464 18.0
125.463196595 17.0
125.515717726 23.0
125.568238856 21.0
125.620759987 18.0
125.673281118 15.0
125.725802248 21.0
125.778323379 16.0
125.830844510 9.0
125.883365640 14.0
125.935886771 19.0
125.988407902 22.0
126.040929033 16.0
126.093450163 15.0
126.145971294 17.0
126.198492425 21.0
126.251013555 17.0
126.303534686 22.0
126.356055817 19.0
126.408576948 29.0
126.461098078 16.0
126.513619209 19.0
126.566140340 19.0
126.618661470 21.0
126.671182601 16.0
126.723703732 13.0
126.776224862 14.0
126.828745993 21.0
126.881267124 11.0
126.933788255 16.0
126.986309385 17.0
127.038830516 13.0
127.091351647 20.0
127.143872777 16.0
127.196393908 19.0
127.248915039 25.0
127.301436170 18.0
127.353957300 19.0
127.406478431 20.0
127.458999562 8.0
127.511520692 16.0
127.564041823 22.0
127.616562954 23.0
127.669084084 16.0
127.721605215 21.0
127.774126346 13.0
127.826647477 13.0
127.879168607 17.0
127.931689738 22.0
127.984210869 16.0
128.036731999 18.0
128.089253130 25.0
128.141774261 21.0
128.194295391 22.0
128.246816522 15.0
128.299337653 18.0
128.351858784 9.0
128.404379914 13.0
128.456901045 15.0
128.509422176 20.0
128.561943306 19.0
128.614464437 20.0
128.666985568 12.0
128.719506699 15.0
128.772027829 22.0
128.824548960 25.0
128.877070091 26.0
128.929591221 17.0
128.982112352 26.0
129.034633483 17.0
129.087154613 20.0
129.139675744 13.0
129.192196875 20.0
129.244718006 20.0
129.297239136 20.0
129.349760267 18.0
129.402281398 16.0
129.454802528 8.0
129.507323659 13.0
129.559844790 25.0
129.612365921 20.0
129.664887051 17.0
129.717408182 22.0
129.769929313 21.0
129.822450443 14.0
129.874971574 11.0
129.927492705 21.0
129.980013835 15.0
130.032534966 25.0
130.085056097 24.0
130.137577228 30.0
130.190098358 18.0
130.242619489 22.0
130.295140620 20.0
130.347661750 16.0
130.400182881 13.0
130.452704012 22.0
130.505225142 21.0
130.557746273 12.0
130.610267404 16.0
130.662788535 19.0
130.715309665 16.0
130.767830796 20.0
130.820351927 13.0
130.872873057 22.0
130.925394188 19.0
130.977915319 14.0
131.030436450 17.0
131.082957580 18.0
131.135478711 15.0
131.187999842 13.0
131.240520972 16.0
131.293042103 19.0
131.345563234 21.0
131.398084364 26.0
131.450605495 32.0
131.503126626 18.0
131.555647757 12.0
131.608168887 15.0
131.660690018 20.0
131.713211149 25.0
131.765732279 9.0
131.818253410 18.0
131.870774541 19.0
131.923295672 18.0
131.975816802 17.0
132.028337933 13.0
132.080859064 11.0
132.133380194 15.0
132.185901325 19.0
132.238422456 22.0
132.290943586 23.0
132.343464717 11.0
132.395985848 19.0
132.448506979 13.0
132.501028109 16.0
132.553549240 24.0
132.606070371 21.0
132.658591501 15.0
132.711112632 19.0
132.763633763 16.0
132.816154893 23.0
132.868676024 17.0
132.921197155 21.0
132.973718286 21.0
133.026239416 19.0
133.078760547 20.0
133.131281678 18.0
133.183802808 15.0
133.236323939 21.0
133.288845070 21.0
133.341366201 20.0
133.393887331 19.0
133.446408462 17.0
133.498929593 16.0
133.551450723 28.0
133.603971854 19.0
133.656492985 26.0
133.709014115 20.0
133.761535246 19.0
133.814056377 20.0
133.866577508 22.0
133.919098638 23.0
133.971619769 21.0
134.024140900 21.0
134.076662030 20.0
134.129183161 16.0
134.181704292 28.0
134.234225423 22.0
134.286746553 22.0
134.339267684 20.0
134.391788815 19.0
134.444309945 20.0
134.496831076 15.0
134.549352207 30.0
134.601873337 21.0
134.654394468 18.0
134.706915599 27.0
134.759436730 21.0
134.811957860 14.0
134.864478991 15.0
134.917000122 19.0
134.969521252 19.0
135.022042383 15.0
135.074563514 13.0
135.127084644 22.0
135.179605775 17.0
135.232126906 24.0
135.284648037 13.0
135.337169167 15.0
135.389690298 17.0
135.442211429 27.0
135.494732559 16.0
135.547253690 10.0
135.599774821 11.0
135.652295952 29.0
135.704817082 18.0
135.757338213 15.0
135.809859344 26.0
135.862380474 13.0
135.914901605 23.0
135.967422736 13.0
136.019943866 13.0
136.072464997 16.0
136.124986128 15.0
136.177507259 20.0
136.230028389 11.0
136.282549520 18.0
136.335070651 18.0
136.387591781 24.0
136.440112912 15.0
136.492634043 20.0
136.545155174 20.0
136.597676304 22.0
136.650197435 21.0
136.702718566 18.0
136.755239696 23.0
136.807760827 30.0
136.860281958 19.0
136.912803088 23.0
136.965324219 24.0
137.017845350 8.0
137.070366481 20.0
137.122887611 19.0
137.175408742 25.0
137.227929873 24.0
137.280451003 20.0
137.332972134 13.0
137.385493265 17.0
137.438014395 20.0
137.490535526 29.0
137.543056657 21.0
137.595577788 15.0
137.648098918 15.0
137.700620049 22.0
137.753141180 20.0
137.805662310 23.0
137.858183441 18.0
137.910704572 14.0
137.963225703 10.0
138.015746833 17.0
138.068267964 20.0
138.120789095 15.0
138.173310225 17.0
138.225831356 17.0
138.278352487 19.0
138.330873617 18.0
138.383394748 20.0
138.435915879 21.0
138.488437010 19.0
138.540958140 22.0
138.593479271 21.0
138.646000402 13.0
138.698521532 24.0
138.751042663 23.0
138.803563794 16.0
138.856084925 7.0
138.908606055 23.0
138.961127186 17.0
139.013648317 18.0
139.066169447 23.0
139.118690578 23.0
139.171211709 21.0
139.223732839 12.0
139.276253970 14.0
139.328775101 24.0
139.381296232 32.0
139.433817362 21.0
139.486338493 8.0
139.538859624 19.0
139.591380754 15.0
139.643901885 14.0
139.696423016 20.0
139.748944146 16.0
139.801465277 19.0
139.853986408 18.0
139.906507539 24.0
139.959028669 21.0
140.011549800 22.0
