2.091060570 57.0
2.143581701 54.0
2.196102831 43.0
2.248623962 56.0
2.301145093 52.0
2.353666224 54.0
2.406187354 65.0
2.458708485 47.0
2.511229616 44.0
2.563750746 50.0
2.616271877 63.0
2.668793008 62.0
2.721314138 58.0
2.773835269 61.0
2.826356400 58.0
2.878877531 56.0
2.931398661 73.0
2.983919792 61.0
3.036440923 63.0
3.088962053 53.0
3.141483184 65.0
3.194004315 66.0
3.246525445 59.0
3.299046576 58.0
3.351567707 68.0
3.404088838 72.0
3.456609968 84.0
3.509131099 74.0
3.561652230 50.0
3.614173360 72.0
3.666694491 68.0
3.719215622 74.0
3.771736753 71.0
3.824257883 70.0
3.876779014 86.0
3.929300145 82.0
3.981821275 67.0
4.034342406 75.0
4.086863537 91.0
4.139384667 72.0
4.191905798 68.0
4.244426929 81.0
4.296948060 100.0
4.349469190 100.0
4.401990321 80.0
4.454511452 97.0
4.507032582 93.0
4.559553713 103.0
4.612074844 98.0
4.664595975 107.0
4.717117105 102.0
4.769638236 113.0
4.822159367 119.0
4.874680497 118.0
4.927201628 115.0
4.979722759 126.0
5.032243889 141.0
5.084765020 126.0
5.137286151 122.0
5.189807282 134.0
5.242328412 138.0
5.294849543 142.0
5.347370674 152.0
5.399891804 157.0
5.452412935 156.0
5.504934066 142.0
5.557455196 163.0
5.609976327 171.0
5.662497458 181.0
5.715018589 169.0
5.767539719 173.0
5.820060850 178.0
5.872581981 208.0
5.925103111 186.0
5.977624242 189.0
6.030145373 215.0
6.082666504 207.0
6.135187634 241.0
6.187708765 218.0
6.240229896 229.0
6.292751026 246.0
6.345272157 229.0
6.397793288 219.0
6.450314418 245.0
6.502835549 265.0
6.555356680 248.0
6.607877811 211.0
6.660398941 234.0
6.712920072 227.0
6.765441203 263.0
6.817962333 297.0
6.870483464 268.0
6.923004595 274.0
6.975525726 284.0
7.028046856 268.0
7.080567987 281.0
7.133089118 286.0
7.185610248 304.0
7.238131379 296.0
7.290652510 305.0
7.343173640 309.0
7.395694771 309.0
7.448215902 348.0
7.500737033 356.0
7.553258163 327.0
7.605779294 321.0
7.658300425 316.0
7.710821555 338.0
7.763342686 344.0
7.815863817 308.0
7.868384947 328.0
7.920906078 366.0
7.973427209 348.0
8.025948340 366.0
8.078469470 354.0
8.130990601 341.0
8.183511732 390.0
8.236032862 391.0
8.288553993 394.0
8.341075124 367.0
8.393596255 363.0
8.446117385 388.0
8.498638516 401.0
8.551159647 375.0
8.603680777 388.0
8.656201908 360.0
8.708723039 377.0
8.761244169 387.0
8.813765300 409.0
8.866286431 359.0
8.918807562 390.0
8.971328692 401.0
9.023849823 402.0
9.076370954 420.0
9.128892084 375.0
9.181413215 400.0
9.233934346 358.0
9.286455477 408.0
9.338976607 404.0
9.391497738 422.0
9.444018869 405.0
9.496539999 379.0
9.549061130 408.0
9.601582261 400.0
9.654103391 416.0
9.706624522 423.0
9.759145653 410.0
9.811666784 412.0
9.864187914 433.0
9.916709045 431.0
9.969230176 399.0
10.021751306 410.0
10.074272437 383.0
10.126793568 461.0
10.179314698 424.0
10.231835829 433.0
10.284356960 427.0
10.336878091 438.0
10.389399221 414.0
10.441920352 387.0
10.494441483 439.0
10.546962613 429.0
10.599483744 403.0
10.652004875 410.0
10.704526006 408.0
10.757047136 450.0
10.809568267 385.0
10.862089398 434.0
10.914610528 424.0
10.967131659 419.0
11.019652790 451.0
11.072173920 444.0
11.124695051 417.0
11.177216182 415.0
11.229737313 434.0
11.282258443 433.0
11.334779574 425.0
11.387300705 405.0
11.439821835 459.0
11.492342966 395.0
11.544864097 427.0
11.597385228 410.0
11.649906358 435.0
11.702427489 424.0
11.754948620 422.0
11.807469750 439.0
11.859990881 434.0
11.912512012 419.0
11.965033142 456.0
12.017554273 456.0
12.070075404 436.0
12.122596535 419.0
12.175117665 422.0
12.227638796 475.0
12.280159927 463.0
12.332681057 421.0
12.385202188 430.0
12.437723319 443.0
12.490244449 389.0
12.542765580 418.0
12.595286711 387.0
12.647807842 410.0
12.700328972 469.0
12.752850103 399.0
12.805371234 435.0
12.857892364 418.0
12.910413495 385.0
12.962934626 427.0
13.015455757 457.0
13.067976887 422.0
13.120498018 420.0
13.173019149 426.0
13.225540279 421.0
13.278061410 412.0
13.330582541 433.0
13.383103671 424.0
13.435624802 404.0
13.488145933 438.0
13.540667064 455.0
13.593188194 415.0
13.645709325 451.0
13.698230456 453.0
13.750751586 401.0
13.803272717 423.0
13.855793848 453.0
13.908314979 425.0
13.960836109 435.0
14.013357240 427.0
14.065878371 435.0
14.118399501 455.0
14.170920632 447.0
14.223441763 410.0
14.275962893 441.0
14.328484024 413.0
14.381005155 432.0
14.433526286 410.0
14.486047416 421.0
14.538568547 399.0
14.591089678 423.0
14.643610808 442.0
14.696131939 452.0
14.748653070 414.0
14.801174200 427.0
14.853695331 466.0
14.906216462 433.0
14.958737593 437.0
15.011258723 440.0
15.063779854 434.0
15.116300985 428.0
15.168822115 406.0
15.221343246 416.0
15.273864377 431.0
15.326385508 441.0
15.378906638 454.0
15.431427769 401.0
15.483948900 427.0
15.536470030 439.0
15.588991161 448.0
15.641512292 414.0
15.694033422 395.0
15.746554553 442.0
15.799075684 427.0
15.851596815 460.0
15.904117945 449.0
15.956639076 430.0
16.009160207 441.0
16.061681337 444.0
16.114202468 459.0
16.166723599 428.0
16.219244730 433.0
16.271765860 453.0
16.324286991 407.0
16.376808122 444.0
16.429329252 441.0
16.481850383 449.0
16.534371514 418.0
16.586892644 444.0
16.639413775 432.0
16.691934906 406.0
16.744456037 438.0
16.796977167 432.0
16.849498298 430.0
16.902019429 399.0
16.954540559 460.0
17.007061690 391.0
17.059582821 414.0
17.112103951 456.0
17.164625082 422.0
17.217146213 446.0
17.269667344 406.0
17.322188474 417.0
17.374709605 433.0
17.427230736 404.0
17.479751866 447.0
17.532272997 407.0
17.584794128 416.0
17.637315259 400.0
17.689836389 444.0
17.742357520 427.0
17.794878651 458.0
17.847399781 446.0
17.899920912 441.0
17.952442043 401.0
18.004963173 394.0
18.057484304 418.0
18.110005435 456.0
18.162526566 434.0
18.215047696 436.0
18.267568827 421.0
18.320089958 431.0
18.372611088 454.0
18.425132219 419.0
18.477653350 457.0
18.530174481 426.0
18.582695611 441.0
18.635216742 427.0
18.687737873 387.0
18.740259003 430.0
18.792780134 431.0
18.845301265 423.0
18.897822395 440.0
18.950343526 453.0
19.002864657 438.0
19.055385788 425.0
19.107906918 387.0
19.160428049 456.0
19.212949180 422.0
19.265470310 451.0
19.317991441 390.0
19.370512572 452.0
19.423033702 450.0
19.475554833 444.0
19.528075964 423.0
19.580597095 428.0
19.633118225 463.0
19.685639356 438.0
19.738160487 458.0
19.790681617 417.0
19.843202748 417.0
19.895723879 430.0
19.948245010 440.0
20.000766140 454.0
20.053287271 426.0
20.105808402 485.0
20.158329532 395.0
20.210850663 444.0
20.263371794 448.0
20.315892924 416.0
20.368414055 423.0
20.420935186 399.0
20.473456317 420.0
20.525977447 407.0
20.578498578 429.0
20.631019709 425.0
20.683540839 433.0
20.736061970 481.0
20.788583101 401.0
20.841104232 462.0
20.893625362 422.0
20.946146493 475.0
20.998667624 442.0
21.051188754 454.0
21.103709885 444.0
21.156231016 427.0
21.208752146 430.0
21.261273277 449.0
21.313794408 452.0
21.366315539 429.0
21.418836669 455.0
21.471357800 459.0
21.523878931 445.0
21.576400061 427.0
21.628921192 450.0
21.681442323 412.0
21.733963453 427.0
21.786484584 426.0
21.839005715 428.0
21.891526846 406.0
21.944047976 457.0
21.996569107 428.0
22.049090238 469.0
22.101611368 429.0
22.154132499 415.0
22.206653630 449.0
22.259174761 430.0
22.311695891 431.0
22.364217022 427.0
22.416738153 455.0
22.469259283 420.0
22.521780414 462.0
22.574301545 458.0
22.626822675 456.0
22.679343806 481.0
22.731864937 445.0
22.784386068 402.0
22.836907198 488.0
22.889428329 456.0
22.941949460 445.0
22.994470590 451.0
23.046991721 457.0
23.099512852 465.0
23.152033983 476.0
23.204555113 474.0
23.257076244 460.0
23.309597375 461.0
23.362118505 445.0
23.414639636 444.0
23.467160767 491.0
23.519681897 454.0
23.572203028 474.0
23.624724159 471.0
23.677245290 455.0
23.729766420 461.0
23.782287551 493.0
23.834808682 434.0
23.887329812 457.0
23.939850943 472.0
23.992372074 424.0
24.044893204 454.0
24.097414335 467.0
24.149935466 502.0
24.202456597 518.0
24.254977727 450.0
24.307498858 468.0
24.360019989 456.0
24.412541119 485.0
24.465062250 445.0
24.517583381 420.0
24.570104512 430.0
24.622625642 472.0
24.675146773 504.0
24.727667904 497.0
24.780189034 472.0
24.832710165 462.0
24.885231296 463.0
24.937752426 469.0
24.990273557 468.0
25.042794688 470.0
25.095315819 435.0
25.147836949 473.0
25.200358080 490.0
25.252879211 478.0
25.305400341 443.0
25.357921472 453.0
25.410442603 447.0
25.462963733 466.0
25.515484864 467.0
25.568005995 479.0
25.620527126 420.0
25.673048256 478.0
25.725569387 475.0
25.778090518 453.0
25.830611648 450.0
25.883132779 440.0
25.935653910 464.0
25.988175041 455.0
26.040696171 457.0
26.093217302 492.0
26.145738433 445.0
26.198259563 424.0
26.250780694 500.0
26.303301825 502.0
26.355822955 478.0
26.408344086 483.0
26.460865217 414.0
26.513386348 477.0
26.565907478 424.0
26.618428609 451.0
26.670949740 456.0
26.723470870 443.0
26.775992001 428.0
26.828513132 458.0
26.881034263 433.0
26.933555393 445.0
26.986076524 484.0
27.038597655 456.0
27.091118785 498.0
27.143639916 435.0
27.196161047 432.0
27.248682177 432.0
27.301203308 430.0
27.353724439 458.0
27.406245570 462.0
27.458766700 405.0
27.511287831 426.0
27.563808962 411.0
27.616330092 474.0
27.668851223 463.0
27.721372354 470.0
27.773893484 437.0
27.826414615 437.0
27.878935746 451.0
27.931456877 448.0
27.983978007 434.0
28.036499138 470.0
28.089020269 438.0
28.141541399 446.0
28.194062530 392.0
28.246583661 491.0
28.299104792 452.0
28.351625922 451.0
28.404147053 466.0
28.456668184 427.0
28.509189314 454.0
28.561710445 438.0
28.614231576 418.0
28.666752706 436.0
28.719273837 437.0
28.771794968 450.0
28.824316099 399.0
28.876837229 440.0
28.929358360 421.0
28.981879491 430.0
29.034400621 420.0
29.086921752 392.0
29.139442883 460.0
29.191964014 420.0
29.244485144 431.0
29.297006275 396.0
29.349527406 453.0
29.402048536 423.0
29.454569667 434.0
29.507090798 409.0
29.559611928 405.0
29.612133059 486.0
29.664654190 438.0
29.717175321 510.0
29.769696451 508.0
29.822217582 464.0
29.874738713 463.0
29.927259843 470.0
29.979780974 414.0
30.032302105 425.0
30.084823235 434.0
30.137344366 453.0
30.189865497 388.0
30.242386628 401.0
30.294907758 429.0
30.347428889 406.0
30.399950020 428.0
30.452471150 428.0
30.504992281 430.0
30.557513412 386.0
30.610034543 424.0
30.662555673 434.0
30.715076804 442.0
30.767597935 465.0
30.820119065 497.0
30.872640196 488.0
30.925161327 451.0
30.977682457 510.0
31.030203588 419.0
31.082724719 425.0
31.135245850 435.0
31.187766980 401.0
31.240288111 408.0
31.292809242 397.0
31.345330372 385.0
31.397851503 442.0
31.450372634 397.0
31.502893765 431.0
31.555414895 409.0
31.607936026 414.0
31.660457157 385.0
31.712978287 412.0
31.765499418 401.0
31.818020549 374.0
31.870541679 383.0
31.923062810 413.0
31.975583941 368.0
32.028105072 424.0
32.080626202 413.0
32.133147333 372.0
32.185668464 396.0
32.238189594 394.0
32.290710725 398.0
32.343231856 441.0
32.395752986 401.0
32.448274117 387.0
32.500795248 429.0
32.553316379 434.0
32.605837509 415.0
32.658358640 416.0
32.710879771 404.0
32.763400901 408.0
32.815922032 411.0
32.868443163 416.0
32.920964294 408.0
32.973485424 410.0
33.026006555 419.0
33.078527686 401.0
33.131048816 380.0
33.183569947 413.0
33.236091078 448.0
33.288612208 417.0
33.341133339 385.0
33.393654470 369.0
33.446175601 436.0
33.498696731 392.0
33.551217862 391.0
33.603738993 390.0
33.656260123 361.0
33.708781254 392.0
33.761302385 388.0
33.813823516 423.0
33.866344646 390.0
33.918865777 378.0
33.971386908 368.0
34.023908038 380.0
34.076429169 425.0
34.128950300 400.0
34.181471430 412.0
34.233992561 380.0
34.286513692 416.0
34.339034823 393.0
34.391555953 404.0
34.444077084 379.0
34.496598215 390.0
34.549119345 404.0
34.601640476 385.0
34.654161607 366.0
34.706682737 362.0
34.759203868 381.0
34.811724999 392.0
34.864246130 431.0
34.916767260 385.0
34.969288391 363.0
35.021809522 366.0
35.074330652 395.0
35.126851783 410.0
35.179372914 395.0
35.231894045 406.0
35.284415175 354.0
35.336936306 424.0
35.389457437 396.0
35.441978567 385.0
35.494499698 411.0
35.547020829 379.0
35.599541959 388.0
35.652063090 418.0
35.704584221 410.0
35.757105352 416.0
35.809626482 382.0
35.862147613 370.0
35.914668744 356.0
35.967189874 421.0
36.019711005 399.0
36.072232136 350.0
36.124753267 378.0
36.177274397 383.0
36.229795528 414.0
36.282316659 430.0
36.334837789 380.0
36.387358920 371.0
36.439880051 361.0
36.492401181 423.0
36.544922312 378.0
36.597443443 372.0
36.649964574 410.0
36.702485704 383.0
36.755006835 359.0
36.807527966 380.0
36.860049096 391.0
36.912570227 415.0
36.965091358 393.0
37.017612488 393.0
37.070133619 389.0
37.122654750 407.0
37.175175881 420.0
37.227697011 384.0
37.280218142 383.0
37.332739273 369.0
37.385260403 398.0
37.437781534 334.0
37.490302665 410.0
37.542823796 340.0
37.595344926 401.0
37.647866057 431.0
37.700387188 393.0
37.752908318 401.0
37.805429449 380.0
37.857950580 400.0
37.910471710 368.0
37.962992841 372.0
38.015513972 378.0
38.068035103 359.0
38.120556233 392.0
38.173077364 364.0
38.225598495 386.0
38.278119625 381.0
38.330640756 379.0
38.383161887 384.0
38.435683018 375.0
38.488204148 366.0
38.540725279 404.0
38.593246410 379.0
38.645767540 402.0
38.698288671 410.0
38.750809802 426.0
38.803330932 351.0
38.855852063 376.0
38.908373194 374.0
38.960894325 397.0
39.013415455 400.0
39.065936586 386.0
39.118457717 382.0
39.170978847 391.0
39.223499978 380.0
39.276021109 397.0
39.328542239 383.0
39.381063370 377.0
39.433584501 384.0
39.486105632 399.0
39.538626762 360.0
39.591147893 389.0
39.643669024 392.0
39.696190154 369.0
39.748711285 373.0
39.801232416 403.0
39.853753547 394.0
39.906274677 385.0
39.958795808 371.0
40.011316939 366.0
40.063838069 353.0
40.116359200 417.0
40.168880331 380.0
40.221401461 372.0
40.273922592 407.0
40.326443723 380.0
40.378964854 374.0
40.431485984 383.0
40.484007115 433.0
40.536528246 375.0
40.589049376 387.0
40.641570507 365.0
40.694091638 378.0
40.746612769 356.0
40.799133899 404.0
40.851655030 370.0
40.904176161 399.0
40.956697291 374.0
41.009218422 399.0
41.061739553 393.0
41.114260683 377.0
41.166781814 373.0
41.219302945 360.0
41.271824076 407.0
41.324345206 349.0
41.376866337 400.0
41.429387468 388.0
41.481908598 397.0
41.534429729 430.0
41.586950860 383.0
41.639471990 415.0
41.691993121 373.0
41.744514252 379.0
41.797035383 348.0
41.849556513 436.0
41.902077644 373.0
41.954598775 384.0
42.007119905 344.0
42.059641036 387.0
42.112162167 419.0
42.164683298 393.0
42.217204428 380.0
42.269725559 378.0
42.322246690 390.0
42.374767820 372.0
42.427288951 383.0
42.479810082 379.0
42.532331212 374.0
42.584852343 365.0
42.637373474 364.0
42.689894605 386.0
42.742415735 399.0
42.794936866 382.0
42.847457997 363.0
42.899979127 373.0
42.952500258 382.0
43.005021389 359.0
43.057542520 378.0
43.110063650 383.0
43.162584781 361.0
43.215105912 377.0
43.267627042 397.0
43.320148173 423.0
43.372669304 370.0
43.425190434 411.0
43.477711565 428.0
43.530232696 400.0
43.582753827 382.0
43.635274957 362.0
43.687796088 363.0
43.740317219 379.0
43.792838349 372.0
43.845359480 344.0
43.897880611 378.0
43.950401741 362.0
44.002922872 376.0
44.055444003 380.0
44.107965134 379.0
44.160486264 383.0
44.213007395 353.0
44.265528526 353.0
44.318049656 383.0
44.370570787 359.0
44.423091918 393.0
44.475613049 364.0
44.528134179 418.0
44.580655310 401.0
44.633176441 397.0
44.685697571 383.0
44.738218702 353.0
44.790739833 369.0
44.843260963 431.0
44.895782094 369.0
44.948303225 397.0
45.000824356 367.0
45.053345486 356.0
45.105866617 418.0
45.158387748 375.0
45.210908878 415.0
45.263430009 367.0
45.315951140 360.0
45.368472271 389.0
45.420993401 399.0
45.473514532 387.0
45.526035663 381.0
45.578556793 408.0
45.631077924 405.0
45.683599055 367.0
45.736120185 326.0
45.788641316 398.0
45.841162447 383.0
45.893683578 364.0
45.946204708 357.0
45.998725839 323.0
46.051246970 347.0
46.103768100 359.0
46.156289231 382.0
46.208810362 375.0
46.261331492 356.0
46.313852623 406.0
46.366373754 353.0
46.418894885 373.0
46.471416015 389.0
46.523937146 376.0
46.576458277 355.0
46.628979407 367.0
46.681500538 403.0
46.734021669 334.0
46.786542800 361.0
46.839063930 381.0
46.891585061 355.0
46.944106192 342.0
46.996627322 335.0
47.049148453 396.0
47.101669584 381.0
47.154190714 350.0
47.206711845 363.0
47.259232976 362.0
47.311754107 390.0
47.364275237 366.0
47.416796368 352.0
47.469317499 366.0
47.521838629 374.0
47.574359760 373.0
47.626880891 354.0
47.679402022 368.0
47.731923152 361.0
47.784444283 371.0
47.836965414 365.0
47.889486544 385.0
47.942007675 353.0
47.994528806 364.0
48.047049936 373.0
48.099571067 356.0
48.152092198 376.0
48.204613329 358.0
48.257134459 379.0
48.309655590 377.0
48.362176721 354.0
48.414697851 378.0
48.467218982 387.0
48.519740113 359.0
48.572261243 382.0
48.624782374 357.0
48.677303505 403.0
48.729824636 371.0
48.782345766 350.0
48.834866897 345.0
48.887388028 329.0
48.939909158 360.0
48.992430289 377.0
49.044951420 356.0
49.097472551 340.0
49.149993681 351.0
49.202514812 371.0
49.255035943 307.0
49.307557073 347.0
49.360078204 378.0
49.412599335 376.0
49.465120465 354.0
49.517641596 346.0
49.570162727 354.0
49.622683858 353.0
49.675204988 352.0
49.727726119 355.0
49.780247250 342.0
49.832768380 360.0
49.885289511 323.0
49.937810642 349.0
49.990331772 336.0
50.042852903 334.0
50.095374034 382.0
50.147895165 357.0
50.200416295 366.0
50.252937426 347.0
50.305458557 370.0
50.357979687 355.0
50.410500818 350.0
50.463021949 331.0
50.515543080 375.0
50.568064210 384.0
50.620585341 348.0
50.673106472 358.0
50.725627602 349.0
50.778148733 394.0
50.830669864 362.0
50.883190994 385.0
50.935712125 362.0
50.988233256 387.0
51.040754387 343.0
51.093275517 357.0
51.145796648 374.0
51.198317779 338.0
51.250838909 368.0
51.303360040 374.0
51.355881171 319.0
51.408402302 350.0
51.460923432 356.0
51.513444563 351.0
51.565965694 364.0
51.618486824 373.0
51.671007955 368.0
51.723529086 348.0
51.776050216 382.0
51.828571347 337.0
51.881092478 355.0
51.933613609 342.0
51.986134739 359.0
52.038655870 329.0
52.091177001 325.0
52.143698131 383.0
52.196219262 353.0
52.248740393 364.0
52.301261523 372.0
52.353782654 384.0
52.406303785 352.0
52.458824916 357.0
52.511346046 338.0
52.563867177 341.0
52.616388308 320.0
52.668909438 343.0
52.721430569 351.0
52.773951700 373.0
52.826472831 378.0
52.878993961 350.0
52.931515092 323.0
52.984036223 363.0
53.036557353 327.0
53.089078484 357.0
53.141599615 374.0
53.194120745 343.0
53.246641876 362.0
53.299163007 351.0
53.351684138 335.0
53.404205268 313.0
53.456726399 375.0
53.509247530 367.0
53.561768660 336.0
53.614289791 382.0
53.666810922 354.0
53.719332053 366.0
53.771853183 351.0
53.824374314 364.0
53.876895445 333.0
53.929416575 340.0
53.981937706 333.0
54.034458837 382.0
54.086979967 370.0
54.139501098 379.0
54.192022229 371.0
54.244543360 334.0
54.297064490 329.0
54.349585621 368.0
54.402106752 374.0
54.454627882 341.0
54.507149013 362.0
54.559670144 359.0
54.612191274 360.0
54.664712405 342.0
54.717233536 343.0
54.769754667 364.0
54.822275797 357.0
54.874796928 333.0
54.927318059 349.0
54.979839189 337.0
55.032360320 345.0
55.084881451 359.0
55.137402582 333.0
55.189923712 377.0
55.242444843 368.0
55.294965974 330.0
55.347487104 372.0
55.400008235 370.0
55.452529366 375.0
55.505050496 301.0
55.557571627 305.0
55.610092758 363.0
55.662613889 340.0
55.715135019 327.0
55.767656150 302.0
55.820177281 332.0
55.872698411 349.0
55.925219542 387.0
55.977740673 381.0
56.030261804 402.0
56.082782934 340.0
56.135304065 334.0
56.187825196 357.0
56.240346326 367.0
56.292867457 372.0
56.345388588 352.0
56.397909718 357.0
56.450430849 321.0
56.502951980 328.0
56.555473111 375.0
56.607994241 369.0
56.660515372 377.0
56.713036503 385.0
56.765557633 358.0
56.818078764 366.0
56.870599895 328.0
56.923121025 352.0
56.975642156 323.0
57.028163287 358.0
57.080684418 363.0
57.133205548 327.0
57.185726679 357.0
57.238247810 369.0
57.290768940 326.0
57.343290071 356.0
57.395811202 351.0
57.448332333 315.0
57.500853463 364.0
57.553374594 323.0
57.605895725 363.0
57.658416855 341.0
57.710937986 307.0
57.763459117 345.0
57.815980247 330.0
57.868501378 335.0
57.921022509 356.0
57.973543640 366.0
58.026064770 331.0
58.078585901 307.0
58.131107032 358.0
58.183628162 366.0
58.236149293 355.0
58.288670424 366.0
58.341191555 309.0
58.393712685 338.0
58.446233816 345.0
58.498754947 315.0
58.551276077 327.0
58.603797208 327.0
58.656318339 301.0
58.708839469 324.0
58.761360600 349.0
58.813881731 330.0
58.866402862 344.0
58.918923992 339.0
58.971445123 355.0
59.023966254 356.0
59.076487384 338.0
59.129008515 332.0
59.181529646 350.0
59.234050776 325.0
59.286571907 309.0
59.339093038 373.0
59.391614169 360.0
59.444135299 346.0
59.496656430 345.0
59.549177561 329.0
59.601698691 332.0
59.654219822 311.0
59.706740953 351.0
59.759262084 370.0
59.811783214 345.0
59.864304345 352.0
59.916825476 369.0
59.969346606 339.0
60.021867737 332.0
60.074388868 318.0
60.126909998 333.0
60.179431129 303.0
60.231952260 340.0
60.284473391 342.0
60.336994521 310.0
60.389515652 305.0
60.442036783 345.0
60.494557913 325.0
60.547079044 347.0
60.599600175 342.0
60.652121306 362.0
60.704642436 350.0
60.757163567 322.0
60.809684698 344.0
60.862205828 305.0
60.914726959 355.0
60.967248090 301.0
61.019769220 319.0
61.072290351 342.0
61.124811482 336.0
61.177332613 347.0
61.229853743 313.0
61.282374874 318.0
61.334896005 351.0
61.387417135 320.0
61.439938266 384.0
61.492459397 314.0
61.544980527 364.0
61.597501658 319.0
61.650022789 312.0
61.702543920 318.0
61.755065050 301.0
61.807586181 368.0
61.860107312 292.0
61.912628442 347.0
61.965149573 339.0
62.017670704 322.0
62.070191835 323.0
62.122712965 343.0
62.175234096 327.0
62.227755227 336.0
62.280276357 323.0
62.332797488 342.0
62.385318619 347.0
62.437839749 347.0
62.490360880 341.0
62.542882011 342.0
62.595403142 324.0
62.647924272 303.0
62.700445403 335.0
62.752966534 318.0
62.805487664 340.0
62.858008795 299.0
62.910529926 332.0
62.963051057 339.0
63.015572187 342.0
63.068093318 335.0
63.120614449 349.0
63.173135579 330.0
63.225656710 337.0
63.278177841 328.0
63.330698971 353.0
63.383220102 348.0
63.435741233 354.0
63.488262364 337.0
63.540783494 321.0
63.593304625 310.0
63.645825756 331.0
63.698346886 334.0
63.750868017 301.0
63.803389148 334.0
63.855910278 352.0
63.908431409 333.0
63.960952540 335.0
64.013473671 333.0
64.065994801 306.0
64.118515932 337.0
64.171037063 330.0
64.223558193 339.0
64.276079324 320.0
64.328600455 343.0
64.381121586 335.0
64.433642716 339.0
64.486163847 335.0
64.538684978 358.0
64.591206108 338.0
64.643727239 335.0
64.696248370 316.0
64.748769500 308.0
64.801290631 336.0
64.853811762 288.0
64.906332893 320.0
64.958854023 324.0
65.011375154 308.0
65.063896285 326.0
65.116417415 347.0
65.168938546 341.0
65.221459677 321.0
65.273980808 331.0
65.326501938 329.0
65.379023069 291.0
65.431544200 343.0
65.484065330 317.0
65.536586461 342.0
65.589107592 366.0
65.641628722 307.0
65.694149853 357.0
65.746670984 321.0
65.799192115 317.0
65.851713245 324.0
65.904234376 297.0
65.956755507 340.0
66.009276637 350.0
66.061797768 338.0
66.114318899 316.0
66.166840029 349.0
66.219361160 333.0
66.271882291 319.0
66.324403422 291.0
66.376924552 334.0
66.429445683 296.0
66.481966814 301.0
66.534487944 325.0
66.587009075 304.0
66.639530206 265.0
66.692051337 326.0
66.744572467 313.0
66.797093598 325.0
66.849614729 341.0
66.902135859 376.0
66.954656990 354.0
67.007178121 333.0
67.059699251 323.0
67.112220382 307.0
67.164741513 338.0
67.217262644 344.0
67.269783774 334.0
67.322304905 311.0
67.374826036 324.0
67.427347166 305.0
67.479868297 318.0
67.532389428 345.0
67.584910559 315.0
67.637431689 338.0
67.689952820 329.0
67.742473951 337.0
67.794995081 287.0
67.847516212 291.0
67.900037343 330.0
67.952558473 311.0
68.005079604 343.0
68.057600735 314.0
68.110121866 313.0
68.162642996 304.0
68.215164127 298.0
68.267685258 334.0
68.320206388 314.0
68.372727519 332.0
68.425248650 313.0
68.477769780 344.0
68.530290911 335.0
68.582812042 297.0
68.635333173 319.0
68.687854303 311.0
68.740375434 304.0
68.792896565 381.0
68.845417695 325.0
68.897938826 339.0
68.950459957 319.0
69.002981088 311.0
69.055502218 314.0
69.108023349 313.0
69.160544480 341.0
69.213065610 330.0
69.265586741 322.0
69.318107872 301.0
69.370629002 332.0
69.423150133 312.0
69.475671264 309.0
69.528192395 339.0
69.580713525 309.0
69.633234656 345.0
69.685755787 313.0
69.738276917 300.0
69.790798048 311.0
69.843319179 328.0
69.895840310 305.0
69.948361440 295.0
70.000882571 320.0
70.053403702 321.0
70.105924832 309.0
70.158445963 303.0
70.210967094 312.0
70.263488224 326.0
70.316009355 325.0
70.368530486 338.0
70.421051617 333.0
70.473572747 327.0
70.526093878 333.0
70.578615009 320.0
70.631136139 307.0
70.683657270 337.0
70.736178401 293.0
70.788699531 329.0
70.841220662 290.0
70.893741793 276.0
70.946262924 276.0
70.998784054 334.0
71.051305185 308.0
71.103826316 326.0
71.156347446 298.0
71.208868577 287.0
71.261389708 336.0
71.313910839 334.0
71.366431969 317.0
71.418953100 289.0
71.471474231 318.0
71.523995361 301.0
71.576516492 295.0
71.629037623 323.0
71.681558753 332.0
71.734079884 319.0
71.786601015 308.0
71.839122146 334.0
71.891643276 288.0
71.944164407 322.0
71.996685538 290.0
72.049206668 343.0
72.101727799 318.0
72.154248930 283.0
72.206770060 346.0
72.259291191 308.0
72.311812322 291.0
72.364333453 328.0
72.416854583 319.0
72.469375714 294.0
72.521896845 288.0
72.574417975 325.0
72.626939106 313.0
72.679460237 303.0
72.731981368 306.0
72.784502498 321.0
72.837023629 348.0
72.889544760 297.0
72.942065890 309.0
72.994587021 307.0
73.047108152 320.0
73.099629282 330.0
73.152150413 348.0
73.204671544 293.0
73.257192675 324.0
73.309713805 313.0
73.362234936 306.0
73.414756067 336.0
73.467277197 314.0
73.519798328 340.0
73.572319459 280.0
73.624840590 309.0
73.677361720 296.0
73.729882851 279.0
73.782403982 315.0
73.834925112 267.0
73.887446243 277.0
73.939967374 292.0
73.992488504 338.0
74.045009635 320.0
74.097530766 300.0
74.150051897 281.0
74.202573027 327.0
74.255094158 330.0
74.307615289 314.0
74.360136419 284.0
74.412657550 292.0
74.465178681 305.0
74.517699811 324.0
74.570220942 307.0
74.622742073 321.0
74.675263204 334.0
74.727784334 288.0
74.780305465 288.0
74.832826596 283.0
74.885347726 314.0
74.937868857 321.0
74.990389988 310.0
75.042911119 296.0
75.095432249 301.0
75.147953380 326.0
75.200474511 313.0
75.252995641 323.0
75.305516772 273.0
75.358037903 313.0
75.410559033 311.0
75.463080164 306.0
75.515601295 312.0
75.568122426 307.0
75.620643556 317.0
75.673164687 317.0
75.725685818 291.0
75.778206948 289.0
75.830728079 315.0
75.883249210 328.0
75.935770341 319.0
75.988291471 295.0
76.040812602 339.0
76.093333733 305.0
76.145854863 302.0
76.198375994 300.0
76.250897125 345.0
76.303418255 328.0
76.355939386 307.0
76.408460517 311.0
76.460981648 320.0
76.513502778 303.0
76.566023909 299.0
76.618545040 282.0
76.671066170 316.0
76.723587301 319.0
76.776108432 321.0
76.828629562 303.0
76.881150693 277.0
76.933671824 333.0
76.986192955 321.0
77.038714085 333.0
77.091235216 347.0
77.143756347 305.0
77.196277477 298.0
77.248798608 300.0
77.301319739 279.0
77.353840870 339.0
77.406362000 296.0
77.458883131 330.0
77.511404262 306.0
77.563925392 295.0
77.616446523 307.0
77.668967654 309.0
77.721488784 332.0
77.774009915 308.0
77.826531046 291.0
77.879052177 294.0
77.931573307 315.0
77.984094438 286.0
78.036615569 323.0
78.089136699 315.0
78.141657830 310.0
78.194178961 314.0
78.246700092 310.0
78.299221222 327.0
78.351742353 300.0
78.404263484 299.0
78.456784614 332.0
78.509305745 358.0
78.561826876 302.0
78.614348006 333.0
78.666869137 264.0
78.719390268 276.0
78.771911399 322.0
78.824432529 325.0
78.876953660 320.0
78.929474791 290.0
78.981995921 279.0
79.034517052 275.0
79.087038183 332.0
79.139559313 319.0
79.192080444 306.0
79.244601575 327.0
79.297122706 305.0
79.349643836 300.0
79.402164967 293.0
79.454686098 296.0
79.507207228 276.0
79.559728359 299.0
79.612249490 293.0
79.664770621 290.0
79.717291751 276.0
79.769812882 294.0
79.822334013 284.0
79.874855143 333.0
79.927376274 325.0
79.979897405 328.0
80.032418535 284.0
80.084939666 305.0
80.137460797 286.0
80.189981928 305.0
80.242503058 294.0
80.295024189 297.0
80.347545320 290.0
80.400066450 287.0
80.452587581 288.0
80.505108712 328.0
80.557629843 321.0
80.610150973 307.0
80.662672104 309.0
80.715193235 323.0
80.767714365 298.0
80.820235496 276.0
80.872756627 298.0
80.925277757 325.0
80.977798888 273.0
81.030320019 289.0
81.082841150 297.0
81.135362280 333.0
81.187883411 305.0
81.240404542 318.0
81.292925672 294.0
81.345446803 327.0
81.397967934 297.0
81.450489064 281.0
81.503010195 284.0
81.555531326 272.0
81.608052457 277.0
81.660573587 324.0
81.713094718 336.0
81.765615849 321.0
81.818136979 309.0
81.870658110 269.0
81.923179241 336.0
81.975700372 318.0
82.028221502 323.0
82.080742633 270.0
82.133263764 268.0
82.185784894 308.0
82.238306025 303.0
82.290827156 332.0
82.343348286 312.0
82.395869417 289.0
82.448390548 319.0
82.500911679 295.0
82.553432809 294.0
82.605953940 310.0
82.658475071 297.0
82.710996201 313.0
82.763517332 283.0
82.816038463 321.0
82.868559594 355.0
82.921080724 304.0
82.973601855 316.0
83.026122986 303.0
83.078644116 316.0
83.131165247 281.0
83.183686378 278.0
83.236207508 295.0
83.288728639 319.0
83.341249770 312.0
83.393770901 310.0
83.446292031 292.0
83.498813162 311.0
83.551334293 287.0
83.603855423 288.0
83.656376554 280.0
83.708897685 313.0
83.761418815 302.0
83.813939946 270.0
83.866461077 304.0
83.918982208 283.0
83.971503338 285.0
84.024024469 296.0
84.076545600 344.0
84.129066730 291.0
84.181587861 306.0
84.234108992 298.0
84.286630123 283.0
84.339151253 253.0
84.391672384 312.0
84.444193515 280.0
84.496714645 282.0
84.549235776 296.0
84.601756907 291.0
84.654278037 285.0
84.706799168 303.0
84.759320299 328.0
84.811841430 290.0
84.864362560 301.0
84.916883691 282.0
84.969404822 277.0
85.021925952 295.0
85.074447083 307.0
85.126968214 341.0
85.179489345 290.0
85.232010475 304.0
85.284531606 269.0
85.337052737 297.0
85.389573867 293.0
85.442094998 298.0
85.494616129 306.0
85.547137259 296.0
85.599658390 311.0
85.652179521 288.0
85.704700652 305.0
85.757221782 317.0
85.809742913 301.0
85.862264044 291.0
85.914785174 318.0
85.967306305 304.0
86.019827436 277.0
86.072348566 301.0
86.124869697 294.0
86.177390828 290.0
86.229911959 288.0
86.282433089 309.0
86.334954220 297.0
86.387475351 302.0
86.439996481 307.0
86.492517612 301.0
86.545038743 283.0
86.597559874 268.0
86.650081004 290.0
86.702602135 293.0
86.755123266 289.0
86.807644396 302.0
86.860165527 297.0
86.912686658 273.0
86.965207788 310.0
87.017728919 309.0
87.070250050 281.0
87.122771181 294.0
87.175292311 280.0
87.227813442 277.0
87.280334573 293.0
87.332855703 319.0
87.385376834 287.0
87.437897965 322.0
87.490419096 319.0
87.542940226 295.0
87.595461357 303.0
87.647982488 291.0
87.700503618 297.0
87.753024749 307.0
87.805545880 272.0
87.858067010 287.0
87.910588141 297.0
87.963109272 304.0
88.015630403 286.0
88.068151533 300.0
88.120672664 293.0
88.173193795 315.0
88.225714925 301.0
88.278236056 295.0
88.330757187 297.0
88.383278317 307.0
88.435799448 279.0
88.488320579 313.0
88.540841710 290.0
88.593362840 284.0
88.645883971 319.0
88.698405102 268.0
88.750926232 275.0
88.803447363 289.0
88.855968494 291.0
88.908489625 263.0
88.961010755 277.0
89.013531886 288.0
89.066053017 306.0
89.118574147 260.0
89.171095278 298.0
89.223616409 289.0
89.276137539 315.0
89.328658670 302.0
89.381179801 276.0
89.433700932 280.0
89.486222062 322.0
89.538743193 288.0
89.591264324 270.0
89.643785454 318.0
89.696306585 300.0
89.748827716 311.0
89.801348847 297.0
89.853869977 300.0
89.906391108 300.0
89.958912239 319.0
90.011433369 297.0
90.063954500 318.0
90.116475631 316.0
90.168996761 294.0
90.221517892 307.0
90.274039023 303.0
90.326560154 285.0
90.379081284 291.0
90.431602415 291.0
90.484123546 304.0
90.536644676 303.0
90.589165807 300.0
90.641686938 312.0
90.694208068 329.0
90.746729199 273.0
90.799250330 297.0
90.851771461 285.0
90.904292591 305.0
90.956813722 257.0
91.009334853 295.0
91.061855983 262.0
91.114377114 320.0
91.166898245 291.0
91.219419376 290.0
91.271940506 314.0
91.324461637 263.0
91.376982768 305.0
91.429503898 297.0
91.482025029 314.0
91.534546160 314.0
91.587067290 313.0
91.639588421 315.0
91.692109552 270.0
91.744630683 294.0
91.797151813 309.0
91.849672944 272.0
91.902194075 296.0
91.954715205 300.0
92.007236336 285.0
92.059757467 299.0
92.112278598 278.0
92.164799728 285.0
92.217320859 289.0
92.269841990 284.0
92.322363120 285.0
92.374884251 293.0
92.427405382 268.0
92.479926512 292.0
92.532447643 299.0
92.584968774 311.0
92.637489905 287.0
92.690011035 275.0
92.742532166 275.0
92.795053297 285.0
92.847574427 299.0
92.900095558 292.0
92.952616689 305.0
93.005137819 303.0
93.057658950 283.0
93.110180081 282.0
93.162701212 330.0
93.215222342 301.0
93.267743473 271.0
93.320264604 298.0
93.372785734 292.0
93.425306865 255.0
93.477827996 305.0
93.530349127 293.0
93.582870257 299.0
93.635391388 312.0
93.687912519 284.0
93.740433649 314.0
93.792954780 271.0
93.845475911 274.0
93.897997041 277.0
93.950518172 294.0
94.003039303 276.0
94.055560434 300.0
94.108081564 306.0
94.160602695 303.0
94.213123826 274.0
94.265644956 295.0
94.318166087 291.0
94.370687218 303.0
94.423208348 287.0
94.475729479 288.0
94.528250610 257.0
94.580771741 291.0
94.633292871 295.0
94.685814002 279.0
94.738335133 285.0
94.790856263 276.0
94.843377394 298.0
94.895898525 280.0
94.948419656 274.0
95.000940786 317.0
95.053461917 293.0
95.105983048 287.0
95.158504178 301.0
95.211025309 256.0
95.263546440 281.0
95.316067570 276.0
95.368588701 317.0
95.421109832 298.0
95.473630963 289.0
95.526152093 282.0
95.578673224 276.0
95.631194355 300.0
95.683715485 297.0
95.736236616 272.0
95.788757747 286.0
95.841278878 297.0
95.893800008 313.0
95.946321139 309.0
95.998842270 284.0
96.051363400 279.0
96.103884531 277.0
96.156405662 282.0
96.208926792 267.0
96.261447923 308.0
96.313969054 266.0
96.366490185 266.0
96.419011315 298.0
96.471532446 253.0
96.524053577 281.0
96.576574707 281.0
96.629095838 268.0
96.681616969 282.0
96.734138099 291.0
96.786659230 294.0
96.839180361 280.0
96.891701492 294.0
96.944222622 273.0
96.996743753 283.0
97.049264884 300.0
97.101786014 281.0
97.154307145 273.0
97.206828276 271.0
97.259349407 281.0
97.311870537 236.0
97.364391668 278.0
97.416912799 267.0
97.469433929 271.0
97.521955060 277.0
97.574476191 254.0
97.626997321 283.0
97.679518452 284.0
97.732039583 266.0
97.784560714 278.0
97.837081844 248.0
97.889602975 252.0
97.942124106 296.0
97.994645236 280.0
98.047166367 264.0
98.099687498 255.0
98.152208629 318.0
98.204729759 274.0
98.257250890 293.0
98.309772021 267.0
98.362293151 254.0
98.414814282 261.0
98.467335413 265.0
98.519856543 258.0
98.572377674 278.0
98.624898805 264.0
98.677419936 272.0
98.729941066 296.0
98.782462197 275.0
98.834983328 309.0
98.887504458 300.0
98.940025589 270.0
98.992546720 261.0
99.045067850 276.0
99.097588981 277.0
99.150110112 312.0
99.202631243 261.0
99.255152373 260.0
99.307673504 267.0
99.360194635 284.0
99.412715765 244.0
99.465236896 293.0
99.517758027 247.0
99.570279158 297.0
99.622800288 302.0
99.675321419 291.0
99.727842550 266.0
99.780363680 277.0
99.832884811 253.0
99.885405942 257.0
99.937927072 304.0
99.990448203 284.0
100.042969334 308.0
100.095490465 292.0
100.148011595 270.0
100.200532726 276.0
100.253053857 254.0
100.305574987 295.0
100.358096118 294.0
100.410617249 313.0
100.463138380 282.0
100.515659510 303.0
100.568180641 284.0
100.620701772 303.0
100.673222902 242.0
100.725744033 270.0
100.778265164 275.0
100.830786294 266.0
100.883307425 275.0
100.935828556 315.0
100.988349687 279.0
101.040870817 280.0
101.093391948 278.0
101.145913079 272.0
101.198434209 286.0
101.250955340 249.0
101.303476471 271.0
101.355997601 272.0
101.408518732 275.0
101.461039863 288.0
101.513560994 246.0
101.566082124 295.0
101.618603255 268.0
101.671124386 280.0
101.723645516 314.0
101.776166647 273.0
101.828687778 268.0
101.881208909 249.0
101.933730039 271.0
101.986251170 292.0
102.038772301 260.0
102.091293431 269.0
102.143814562 299.0
102.196335693 252.0
102.248856823 246.0
102.301377954 255.0
102.353899085 263.0
102.406420216 283.0
102.458941346 255.0
102.511462477 295.0
102.563983608 242.0
102.616504738 274.0
102.669025869 279.0
102.721547000 276.0
102.774068131 276.0
102.826589261 247.0
102.879110392 299.0
102.931631523 254.0
102.984152653 237.0
103.036673784 260.0
103.089194915 256.0
103.141716045 289.0
103.194237176 299.0
103.246758307 233.0
103.299279438 287.0
103.351800568 269.0
103.404321699 289.0
103.456842830 278.0
103.509363960 289.0
103.561885091 264.0
103.614406222 274.0
103.666927352 293.0
103.719448483 264.0
103.771969614 235.0
103.824490745 249.0
103.877011875 295.0
103.929533006 263.0
103.982054137 250.0
104.034575267 275.0
104.087096398 264.0
104.139617529 258.0
104.192138660 287.0
104.244659790 263.0
104.297180921 275.0
104.349702052 266.0
104.402223182 272.0
104.454744313 264.0
104.507265444 257.0
104.559786574 276.0
104.612307705 265.0
104.664828836 253.0
104.717349967 259.0
104.769871097 287.0
104.822392228 282.0
104.874913359 280.0
104.927434489 285.0
104.979955620 268.0
105.032476751 258.0
105.084997882 234.0
105.137519012 253.0
105.190040143 280.0
105.242561274 252.0
105.295082404 250.0
105.347603535 232.0
105.400124666 282.0
105.452645796 269.0
105.505166927 257.0
105.557688058 295.0
105.610209189 274.0
105.662730319 269.0
105.715251450 271.0
105.767772581 274.0
105.820293711 292.0
105.872814842 272.0
105.925335973 279.0
105.977857103 262.0
106.030378234 294.0
106.082899365 260.0
106.135420496 295.0
106.187941626 280.0
106.240462757 253.0
106.292983888 263.0
106.345505018 298.0
106.398026149 277.0
106.450547280 290.0
106.503068411 304.0
106.555589541 234.0
106.608110672 258.0
106.660631803 273.0
106.713152933 296.0
106.765674064 290.0
106.818195195 260.0
106.870716325 253.0
106.923237456 263.0
106.975758587 287.0
107.028279718 249.0
107.080800848 267.0
107.133321979 246.0
107.185843110 280.0
107.238364240 265.0
107.290885371 256.0
107.343406502 267.0
107.395927633 262.0
107.448448763 267.0
107.500969894 267.0
107.553491025 276.0
107.606012155 282.0
107.658533286 254.0
107.711054417 259.0
107.763575547 288.0
107.816096678 279.0
107.868617809 262.0
107.921138940 275.0
107.973660070 251.0
108.026181201 270.0
108.078702332 292.0
108.131223462 259.0
108.183744593 295.0
108.236265724 287.0
108.288786854 267.0
108.341307985 275.0
108.393829116 284.0
108.446350247 255.0
108.498871377 253.0
108.551392508 276.0
108.603913639 244.0
108.656434769 274.0
108.708955900 306.0
108.761477031 250.0
108.813998162 274.0
108.866519292 255.0
108.919040423 278.0
108.971561554 238.0
109.024082684 235.0
109.076603815 252.0
109.129124946 299.0
109.181646076 255.0
109.234167207 269.0
109.286688338 266.0
109.339209469 252.0
109.391730599 274.0
109.444251730 257.0
109.496772861 281.0
109.549293991 293.0
109.601815122 278.0
109.654336253 284.0
109.706857384 243.0
109.759378514 258.0
109.811899645 281.0
109.864420776 281.0
109.916941906 256.0
109.969463037 232.0
110.021984168 297.0
110.074505298 259.0
110.127026429 261.0
110.179547560 264.0
110.232068691 319.0
110.284589821 292.0
110.337110952 270.0
110.389632083 263.0
110.442153213 274.0
110.494674344 271.0
110.547195475 267.0
110.599716605 270.0
110.652237736 260.0
110.704758867 252.0
110.757279998 279.0
110.809801128 280.0
110.862322259 281.0
110.914843390 242.0
110.967364520 303.0
111.019885651 260.0
111.072406782 259.0
111.124927913 281.0
111.177449043 227.0
111.229970174 285.0
111.282491305 299.0
111.335012435 281.0
111.387533566 258.0
111.440054697 260.0
111.492575827 258.0
111.545096958 253.0
111.597618089 263.0
111.650139220 259.0
111.702660350 251.0
111.755181481 261.0
111.807702612 242.0
111.860223742 282.0
111.912744873 245.0
111.965266004 249.0
112.017787135 248.0
112.070308265 284.0
112.122829396 276.0
112.175350527 271.0
112.227871657 270.0
112.280392788 279.0
112.332913919 253.0
112.385435049 257.0
112.437956180 278.0
112.490477311 278.0
112.542998442 256.0
112.595519572 272.0
112.648040703 271.0
112.700561834 271.0
112.753082964 256.0
112.805604095 265.0
112.858125226 279.0
112.910646356 268.0
112.963167487 252.0
113.015688618 251.0
113.068209749 237.0
113.120730879 278.0
113.173252010 254.0
113.225773141 255.0
113.278294271 248.0
113.330815402 274.0
113.383336533 235.0
113.435857664 298.0
113.488378794 242.0
113.540899925 246.0
113.593421056 207.0
113.645942186 269.0
113.698463317 240.0
113.750984448 252.0
113.803505578 277.0
113.856026709 244.0
113.908547840 262.0
113.961068971 217.0
114.013590101 295.0
114.066111232 231.0
114.118632363 252.0
114.171153493 256.0
114.223674624 249.0
114.276195755 251.0
114.328716886 255.0
114.381238016 243.0
114.433759147 265.0
114.486280278 241.0
114.538801408 259.0
114.591322539 265.0
114.643843670 275.0
114.696364800 256.0
114.748885931 269.0
114.801407062 298.0
114.853928193 269.0
114.906449323 245.0
114.958970454 283.0
115.011491585 268.0
115.064012715 282.0
115.116533846 213.0
115.169054977 249.0
115.221576107 254.0
115.274097238 273.0
115.326618369 279.0
115.379139500 258.0
115.431660630 287.0
115.484181761 252.0
115.536702892 238.0
115.589224022 251.0
115.641745153 244.0
115.694266284 249.0
115.746787415 264.0
115.799308545 237.0
115.851829676 258.0
115.904350807 252.0
115.956871937 253.0
116.009393068 267.0
116.061914199 263.0
116.114435329 263.0
116.166956460 243.0
116.219477591 249.0
116.271998722 247.0
116.324519852 255.0
116.377040983 280.0
116.429562114 259.0
116.482083244 264.0
116.534604375 254.0
116.587125506 251.0
116.639646637 257.0
116.692167767 239.0
116.744688898 268.0
116.797210029 267.0
116.849731159 243.0
116.902252290 259.0
116.954773421 273.0
117.007294551 237.0
117.059815682 303.0
117.112336813 258.0
117.164857944 271.0
117.217379074 260.0
117.269900205 228.0
117.322421336 246.0
117.374942466 235.0
117.427463597 261.0
117.479984728 257.0
117.532505858 248.0
117.585026989 263.0
117.637548120 243.0
117.690069251 254.0
117.742590381 250.0
117.795111512 250.0
117.847632643 264.0
117.900153773 267.0
117.952674904 263.0
118.005196035 275.0
118.057717166 279.0
118.110238296 273.0
118.162759427 247.0
118.215280558 263.0
118.267801688 254.0
118.320322819 256.0
118.372843950 248.0
118.425365080 256.0
118.477886211 273.0
118.530407342 258.0
118.582928473 265.0
118.635449603 232.0
118.687970734 247.0
118.740491865 255.0
118.793012995 242.0
118.845534126 258.0
118.898055257 238.0
118.950576387 260.0
119.003097518 268.0
119.055618649 264.0
119.108139780 255.0
119.160660910 262.0
119.213182041 277.0
119.265703172 239.0
119.318224302 249.0
119.370745433 233.0
119.423266564 253.0
119.475787695 242.0
119.528308825 250.0
119.580829956 248.0
119.633351087 280.0
119.685872217 225.0
119.738393348 281.0
119.790914479 277.0
119.843435609 279.0
119.895956740 276.0
119.948477871 239.0
120.000999002 226.0
120.053520132 240.0
120.106041263 256.0
120.158562394 257.0
120.211083524 251.0
120.263604655 256.0
120.316125786 239.0
120.368646917 260.0
120.421168047 243.0
120.473689178 266.0
120.526210309 236.0
120.578731439 234.0
120.631252570 275.0
120.683773701 267.0
120.736294831 245.0
120.788815962 252.0
120.841337093 246.0
120.893858224 224.0
120.946379354 295.0
120.998900485 254.0
121.051421616 268.0
121.103942746 287.0
121.156463877 243.0
121.208985008 243.0
121.261506138 238.0
121.314027269 271.0
121.366548400 255.0
121.419069531 251.0
121.471590661 229.0
121.524111792 253.0
121.576632923 268.0
121.629154053 244.0
121.681675184 224.0
121.734196315 259.0
121.786717446 243.0
121.839238576 263.0
121.891759707 229.0
121.944280838 273.0
121.996801968 252.0
122.049323099 227.0
122.101844230 247.0
122.154365360 240.0
122.206886491 266.0
122.259407622 250.0
122.311928753 257.0
122.364449883 241.0
122.416971014 262.0
122.469492145 259.0
122.522013275 255.0
122.574534406 240.0
122.627055537 255.0
122.679576668 219.0
122.732097798 277.0
122.784618929 257.0
122.837140060 269.0
122.889661190 260.0
122.942182321 237.0
122.994703452 230.0
123.047224582 242.0
123.099745713 249.0
123.152266844 240.0
123.204787975 233.0
123.257309105 265.0
123.309830236 279.0
123.362351367 258.0
123.414872497 246.0
123.467393628 249.0
123.519914759 284.0
123.572435889 263.0
123.624957020 249.0
123.677478151 221.0
123.729999282 241.0
123.782520412 286.0
123.835041543 225.0
123.887562674 260.0
123.940083804 266.0
123.992604935 241.0
124.045126066 237.0
124.097647197 221.0
124.150168327 280.0
124.202689458 251.0
124.255210589 240.0
124.307731719 211.0
124.360252850 265.0
124.412773981 250.0
124.465295111 259.0
124.517816242 265.0
124.570337373 248.0
124.622858504 254.0
124.675379634 258.0
124.727900765 289.0
124.780421896 234.0
124.832943026 250.0
124.885464157 263.0
124.937985288 234.0
124.990506419 242.0
125.043027549 242.0
125.095548680 231.0
125.148069811 273.0
125.200590941 261.0
125.253112072 249.0
125.305633203 264.0
125.358154333 235.0
125.410675464 246.0
125.463196595 262.0
125.515717726 236.0
125.568238856 255.0
125.620759987 228.0
125.673281118 275.0
125.725802248 261.0
125.778323379 240.0
125.830844510 278.0
125.883365640 238.0
125.935886771 262.0
125.988407902 244.0
126.040929033 240.0
126.093450163 233.0
126.145971294 226.0
126.198492425 227.0
126.251013555 235.0
126.303534686 244.0
126.356055817 240.0
126.408576948 241.0
126.461098078 276.0
126.513619209 232.0
126.566140340 218.0
126.618661470 245.0
126.671182601 260.0
126.723703732 240.0
126.776224862 261.0
126.828745993 252.0
126.881267124 250.0
126.933788255 261.0
126.986309385 268.0
127.038830516 239.0
127.091351647 226.0
127.143872777 252.0
127.196393908 272.0
127.248915039 253.0
127.301436170 262.0
127.353957300 233.0
127.406478431 247.0
127.458999562 245.0
127.511520692 248.0
127.564041823 236.0
127.616562954 258.0
127.669084084 252.0
127.721605215 269.0
127.774126346 270.0
127.826647477 237.0
127.879168607 234.0
127.931689738 217.0
127.984210869 243.0
128.036731999 240.0
128.089253130 239.0
128.141774261 254.0
128.194295391 235.0
128.246816522 245.0
128.299337653 260.0
128.351858784 247.0
128.404379914 231.0
128.456901045 230.0
128.509422176 227.0
128.561943306 225.0
128.614464437 253.0
128.666985568 241.0
128.719506699 228.0
128.772027829 207.0
128.824548960 244.0
128.877070091 219.0
128.929591221 226.0
128.982112352 265.0
129.034633483 248.0
129.087154613 240.0
129.139675744 228.0
129.192196875 251.0
129.244718006 247.0
129.297239136 232.0
129.349760267 241.0
129.402281398 245.0
129.454802528 221.0
129.507323659 241.0
129.559844790 255.0
129.612365921 243.0
129.664887051 224.0
129.717408182 261.0
129.769929313 236.0
129.822450443 267.0
129.874971574 240.0
129.927492705 242.0
129.980013835 265.0
130.032534966 242.0
130.085056097 247.0
130.137577228 226.0
130.190098358 241.0
130.242619489 258.0
130.295140620 238.0
130.347661750 240.0
130.400182881 228.0
130.452704012 230.0
130.505225142 253.0
130.557746273 224.0
130.610267404 238.0
130.662788535 208.0
130.715309665 268.0
130.767830796 239.0
130.820351927 210.0
130.872873057 238.0
130.925394188 246.0
130.977915319 244.0
131.030436450 226.0
131.082957580 231.0
131.135478711 236.0
131.187999842 237.0
131.240520972 261.0
131.293042103 243.0
131.345563234 235.0
131.398084364 238.0
131.450605495 246.0
131.503126626 197.0
131.555647757 218.0
131.608168887 265.0
131.660690018 258.0
131.713211149 241.0
131.765732279 211.0
131.818253410 257.0
131.870774541 245.0
131.923295672 231.0
131.975816802 248.0
132.028337933 259.0
132.080859064 222.0
132.133380194 240.0
132.185901325 244.0
132.238422456 226.0
132.290943586 225.0
132.343464717 239.0
132.395985848 248.0
132.448506979 236.0
132.501028109 233.0
132.553549240 197.0
132.606070371 218.0
132.658591501 222.0
132.711112632 225.0
132.763633763 244.0
132.816154893 220.0
132.868676024 230.0
132.921197155 249.0
132.973718286 246.0
133.026239416 244.0
133.078760547 205.0
133.131281678 221.0
133.183802808 222.0
133.236323939 228.0
133.288845070 232.0
133.341366201 229.0
133.393887331 223.0
133.446408462 257.0
133.498929593 222.0
133.551450723 230.0
133.603971854 249.0
133.656492985 218.0
133.709014115 228.0
133.761535246 225.0
133.814056377 250.0
133.866577508 220.0
133.919098638 214.0
133.971619769 233.0
134.024140900 239.0
134.076662030 267.0
134.129183161 215.0
134.181704292 212.0
134.234225423 241.0
134.286746553 218.0
134.339267684 239.0
134.391788815 228.0
134.444309945 231.0
134.496831076 245.0
134.549352207 247.0
134.601873337 215.0
134.654394468 251.0
134.706915599 227.0
134.759436730 237.0
134.811957860 263.0
134.864478991 238.0
134.917000122 234.0
134.969521252 226.0
135.022042383 270.0
135.074563514 254.0
135.127084644 247.0
135.179605775 228.0
135.232126906 248.0
135.284648037 230.0
135.337169167 253.0
135.389690298 209.0
135.442211429 216.0
135.494732559 236.0
135.547253690 217.0
135.599774821 259.0
135.652295952 215.0
135.704817082 207.0
135.757338213 209.0
135.809859344 216.0
135.862380474 219.0
135.914901605 231.0
135.967422736 234.0
136.019943866 199.0
136.072464997 201.0
136.124986128 233.0
136.177507259 232.0
136.230028389 235.0
136.282549520 210.0
136.335070651 227.0
136.387591781 236.0
136.440112912 236.0
136.492634043 246.0
136.545155174 232.0
136.597676304 232.0
136.650197435 232.0
136.702718566 235.0
136.755239696 245.0
136.807760827 229.0
136.860281958 233.0
136.912803088 228.0
136.965324219 236.0
137.017845350 237.0
137.070366481 227.0
137.122887611 244.0
137.175408742 215.0
137.227929873 223.0
137.280451003 234.0
137.332972134 259.0
137.385493265 240.0
137.438014395 218.0
137.490535526 225.0
137.543056657 220.0
137.595577788 220.0
137.648098918 234.0
137.700620049 240.0
137.753141180 244.0
137.805662310 236.0
137.858183441 239.0
137.910704572 240.0
137.963225703 251.0
138.015746833 240.0
138.068267964 254.0
138.120789095 247.0
138.173310225 268.0
138.225831356 218.0
138.278352487 229.0
138.330873617 254.0
138.383394748 230.0
138.435915879 230.0
138.488437010 221.0
138.540958140 237.0
138.593479271 217.0
138.646000402 225.0
138.698521532 211.0
138.751042663 241.0
138.803563794 241.0
138.856084925 239.0
138.908606055 236.0
138.961127186 239.0
139.013648317 222.0
139.066169447 225.0
139.118690578 265.0
139.171211709 230.0
139.223732839 244.0
139.276253970 214.0
139.328775101 243.0
139.381296232 216.0
139.433817362 251.0
139.486338493 230.0
139.538859624 239.0
139.591380754 230.0
139.643901885 207.0
139.696423016 227.0
139.748944146 232.0
139.801465277 233.0
139.853986408 248.0
139.906507539 229.0
139.959028669 213.0
140.011549800 225.0
