2.091060570 46.0
2.143581701 41.0
2.196102831 49.0
2.248623962 57.0
2.301145093 57.0
2.353666224 52.0
2.406187354 66.0
2.458708485 61.0
2.511229616 53.0
2.563750746 67.0
2.616271877 58.0
2.668793008 70.0
2.721314138 67.0
2.773835269 73.0
2.826356400 70.0
2.878877531 65.0
2.931398661 66.0
2.983919792 64.0
3.036440923 59.0
3.088962053 68.0
3.141483184 61.0
3.194004315 58.0
3.246525445 67.0
3.299046576 61.0
3.351567707 50.0
3.404088838 75.0
3.456609968 68.0
3.509131099 71.0
3.561652230 52.0
3.614173360 74.0
3.666694491 88.0
3.719215622 74.0
3.771736753 77.0
3.824257883 67.0
3.876779014 70.0
3.929300145 86.0
3.981821275 69.0
4.034342406 71.0
4.086863537 72.0
4.139384667 88.0
4.191905798 92.0
4.244426929 83.0
4.296948060 113.0
4.349469190 124.0
4.401990321 122.0
4.454511452 99.0
4.507032582 113.0
4.559553713 131.0
4.612074844 116.0
4.664595975 125.0
4.717117105 151.0
4.769638236 137.0
4.822159367 138.0
4.874680497 130.0
4.927201628 145.0
4.979722759 191.0
5.032243889 153.0
5.084765020 163.0
5.137286151 165.0
5.189807282 209.0
5.242328412 168.0
5.294849543 189.0
5.347370674 198.0
5.399891804 176.0
5.452412935 230.0
5.504934066 204.0
5.557455196 200.0
5.609976327 184.0
5.662497458 223.0
5.715018589 234.0
5.767539719 224.0
5.820060850 256.0
5.872581981 252.0
5.925103111 235.0
5.977624242 244.0
6.030145373 276.0
6.082666504 295.0
6.135187634 289.0
6.187708765 282.0
6.240229896 312.0
6.292751026 294.0
6.345272157 335.0
6.397793288 280.0
6.450314418 295.0
6.502835549 312.0
6.555356680 302.0
6.607877811 344.0
6.660398941 338.0
6.712920072 340.0
6.765441203 319.0
6.817962333 329.0
6.870483464 303.0
6.923004595 358.0
6.975525726 356.0
7.028046856 367.0
7.080567987 373.0
7.133089118 383.0
7.185610248 361.0
7.238131379 396.0
7.290652510 382.0
7.343173640 365.0
7.395694771 406.0
7.448215902 359.0
7.500737033 416.0
7.553258163 394.0
7.605779294 414.0
7.658300425 425.0
7.710821555 407.0
7.763342686 384.0
7.815863817 429.0
7.868384947 403.0
7.920906078 414.0
7.973427209 457.0
8.025948340 448.0
8.078469470 412.0
8.130990601 438.0
8.183511732 463.0
8.236032862 430.0
8.288553993 451.0
8.341075124 410.0
8.393596255 473.0
8.446117385 496.0
8.498638516 449.0
8.551159647 455.0
8.603680777 479.0
8.656201908 437.0
8.708723039 463.0
8.761244169 480.0
8.813765300 473.0
8.866286431 499.0
8.918807562 475.0
8.971328692 426.0
9.023849823 510.0
9.076370954 461.0
9.128892084 460.0
9.181413215 496.0
9.233934346 494.0
9.286455477 480.0
9.338976607 465.0
9.391497738 434.0
9.444018869 497.0
9.496539999 514.0
9.549061130 500.0
9.601582261 496.0
9.654103391 503.0
9.706624522 489.0
9.759145653 527.0
9.811666784 522.0
9.864187914 501.0
9.916709045 499.0
9.969230176 505.0
10.021751306 467.0
10.074272437 521.0
10.126793568 497.0
10.179314698 496.0
10.231835829 471.0
10.284356960 473.0
10.336878091 504.0
10.389399221 476.0
10.441920352 500.0
10.494441483 492.0
10.546962613 455.0
10.599483744 516.0
10.652004875 490.0
10.704526006 493.0
10.757047136 509.0
10.809568267 491.0
10.862089398 501.0
10.914610528 524.0
10.967131659 545.0
11.019652790 468.0
11.072173920 545.0
11.124695051 526.0
11.177216182 518.0
11.229737313 507.0
11.282258443 526.0
11.334779574 567.0
11.387300705 461.0
11.439821835 509.0
11.492342966 488.0
11.544864097 507.0
11.597385228 505.0
11.649906358 501.0
11.702427489 522.0
11.754948620 505.0
11.807469750 520.0
11.859990881 517.0
11.912512012 521.0
11.965033142 512.0
12.017554273 446.0
12.070075404 504.0
12.122596535 500.0
12.175117665 495.0
12.227638796 558.0
12.280159927 506.0
12.332681057 501.0
12.385202188 501.0
12.437723319 481.0
12.490244449 565.0
12.542765580 521.0
12.595286711 522.0
12.647807842 517.0
12.700328972 481.0
12.752850103 521.0
12.805371234 482.0
12.857892364 523.0
12.910413495 511.0
12.962934626 529.0
13.015455757 521.0
13.067976887 526.0
13.120498018 509.0
13.173019149 542.0
13.225540279 572.0
13.278061410 511.0
13.330582541 530.0
13.383103671 500.0
13.435624802 529.0
13.488145933 523.0
13.540667064 496.0
13.593188194 488.0
13.645709325 511.0
13.698230456 484.0
13.750751586 532.0
13.803272717 496.0
13.855793848 501.0
13.908314979 499.0
13.960836109 514.0
14.013357240 557.0
14.065878371 479.0
14.118399501 540.0
14.170920632 511.0
14.223441763 474.0
14.275962893 484.0
14.328484024 495.0
14.381005155 522.0
14.433526286 461.0
14.486047416 522.0
14.538568547 503.0
14.591089678 503.0
14.643610808 526.0
14.696131939 497.0
14.748653070 571.0
14.801174200 508.0
14.853695331 529.0
14.906216462 507.0
14.958737593 510.0
15.011258723 510.0
15.063779854 499.0
15.116300985 524.0
15.168822115 508.0
15.221343246 510.0
15.273864377 498.0
15.326385508 487.0
15.378906638 508.0
15.431427769 520.0
15.483948900 484.0
15.536470030 498.0
15.588991161 522.0
15.641512292 499.0
15.694033422 503.0
15.746554553 494.0
15.799075684 529.0
15.851596815 509.0
15.904117945 517.0
15.956639076 530.0
16.009160207 513.0
16.061681337 523.0
16.114202468 525.0
16.166723599 475.0
16.219244730 526.0
16.271765860 537.0
16.324286991 504.0
16.376808122 527.0
16.429329252 489.0
16.481850383 519.0
16.534371514 486.0
16.586892644 539.0
16.639413775 523.0
16.691934906 493.0
16.744456037 492.0
16.796977167 496.0
16.849498298 533.0
16.902019429 507.0
16.954540559 564.0
17.007061690 545.0
17.059582821 480.0
17.112103951 450.0
17.164625082 478.0
17.217146213 527.0
17.269667344 483.0
17.322188474 510.0
17.374709605 509.0
17.427230736 538.0
17.479751866 506.0
17.532272997 495.0
17.584794128 513.0
17.637315259 579.0
17.689836389 493.0
17.742357520 505.0
17.794878651 552.0
17.847399781 510.0
17.899920912 544.0
17.952442043 512.0
18.004963173 474.0
18.057484304 502.0
18.110005435 523.0
18.162526566 514.0
18.215047696 541.0
18.267568827 512.0
18.320089958 573.0
18.372611088 566.0
18.425132219 548.0
18.477653350 526.0
18.530174481 510.0
18.582695611 491.0
18.635216742 454.0
18.687737873 527.0
18.740259003 532.0
18.792780134 529.0
18.845301265 531.0
18.897822395 530.0
18.950343526 517.0
19.002864657 520.0
19.055385788 510.0
19.107906918 523.0
19.160428049 508.0
19.212949180 514.0
19.265470310 513.0
19.317991441 551.0
19.370512572 511.0
19.423033702 525.0
19.475554833 517.0
19.528075964 516.0
19.580597095 527.0
19.633118225 540.0
19.685639356 599.0
19.738160487 503.0
19.790681617 493.0
19.843202748 504.0
19.895723879 481.0
19.948245010 468.0
20.000766140 524.0
20.053287271 510.0
20.105808402 572.0
20.158329532 505.0
20.210850663 514.0
20.263371794 538.0
20.315892924 545.0
20.368414055 541.0
20.420935186 529.0
20.473456317 530.0
20.525977447 510.0
20.578498578 537.0
20.631019709 522.0
20.683540839 557.0
20.736061970 493.0
20.788583101 520.0
20.841104232 515.0
20.893625362 506.0
20.946146493 475.0
20.998667624 512.0
21.051188754 514.0
21.103709885 510.0
21.156231016 510.0
21.208752146 502.0
21.261273277 540.0
21.313794408 494.0
21.366315539 526.0
21.418836669 522.0
21.471357800 497.0
21.523878931 531.0
21.576400061 514.0
21.628921192 527.0
21.681442323 543.0
21.733963453 518.0
21.786484584 540.0
21.839005715 491.0
21.891526846 482.0
21.944047976 509.0
21.996569107 489.0
22.049090238 529.0
22.101611368 566.0
22.154132499 534.0
22.206653630 534.0
22.259174761 540.0
22.311695891 543.0
22.364217022 451.0
22.416738153 517.0
22.469259283 573.0
22.521780414 495.0
22.574301545 493.0
22.626822675 509.0
22.679343806 523.0
22.731864937 521.0
22.784386068 487.0
22.836907198 501.0
22.889428329 509.0
22.941949460 487.0
22.994470590 500.0
23.046991721 569.0
23.099512852 489.0
23.152033983 486.0
23.204555113 556.0
23.257076244 534.0
23.309597375 518.0
23.362118505 547.0
23.414639636 515.0
23.467160767 589.0
23.519681897 473.0
23.572203028 521.0
23.624724159 540.0
23.677245290 541.0
23.729766420 516.0
23.782287551 541.0
23.834808682 524.0
23.887329812 494.0
23.939850943 525.0
23.992372074 554.0
24.044893204 497.0
24.097414335 468.0
24.149935466 514.0
24.202456597 533.0
24.254977727 527.0
24.307498858 504.0
24.360019989 504.0
24.412541119 504.0
24.465062250 497.0
24.517583381 522.0
24.570104512 469.0
24.622625642 495.0
24.675146773 507.0
24.727667904 530.0
24.780189034 525.0
24.832710165 549.0
24.885231296 515.0
24.937752426 533.0
24.990273557 502.0
25.042794688 480.0
25.095315819 548.0
25.147836949 515.0
25.200358080 529.0
25.252879211 542.0
25.305400341 530.0
25.357921472 522.0
25.410442603 564.0
25.462963733 501.0
25.515484864 514.0
25.568005995 490.0
25.620527126 499.0
25.673048256 525.0
25.725569387 546.0
25.778090518 509.0
25.830611648 562.0
25.883132779 477.0
25.935653910 518.0
25.988175041 484.0
26.040696171 564.0
26.093217302 470.0
26.145738433 554.0
26.198259563 524.0
26.250780694 511.0
26.303301825 555.0
26.355822955 502.0
26.408344086 527.0
26.460865217 495.0
26.513386348 524.0
26.565907478 533.0
26.618428609 544.0
26.670949740 523.0
26.723470870 532.0
26.775992001 501.0
26.828513132 457.0
26.881034263 510.0
26.933555393 528.0
26.986076524 527.0
27.038597655 486.0
27.091118785 541.0
27.143639916 499.0
27.196161047 556.0
27.248682177 520.0
27.301203308 521.0
27.353724439 518.0
27.406245570 546.0
27.458766700 517.0
27.511287831 536.0
27.563808962 528.0
27.616330092 506.0
27.668851223 488.0
27.721372354 497.0
27.773893484 525.0
27.826414615 535.0
27.878935746 488.0
27.931456877 538.0
27.983978007 522.0
28.036499138 562.0
28.089020269 507.0
28.141541399 531.0
28.194062530 529.0
28.246583661 487.0
28.299104792 481.0
28.351625922 497.0
28.404147053 540.0
28.456668184 516.0
28.509189314 519.0
28.561710445 514.0
28.614231576 513.0
28.666752706 510.0
28.719273837 481.0
28.771794968 541.0
28.824316099 545.0
28.876837229 493.0
28.929358360 493.0
28.981879491 483.0
29.034400621 496.0
29.086921752 515.0
29.139442883 525.0
29.191964014 515.0
29.244485144 489.0
29.297006275 527.0
29.349527406 495.0
29.402048536 505.0
29.454569667 505.0
29.507090798 507.0
29.559611928 521.0
29.612133059 502.0
29.664654190 495.0
29.717175321 518.0
29.769696451 496.0
29.822217582 489.0
29.874738713 560.0
29.927259843 560.0
29.979780974 526.0
30.032302105 617.0
30.084823235 698.0
30.137344366 687.0
30.189865497 614.0
30.242386628 589.0
30.294907758 542.0
30.347428889 542.0
30.399950020 499.0
30.452471150 520.0
30.504992281 513.0
30.557513412 523.0
30.610034543 522.0
30.662555673 519.0
30.715076804 497.0
30.767597935 516.0
30.820119065 483.0
30.872640196 486.0
30.925161327 531.0
30.977682457 510.0
31.030203588 471.0
31.082724719 497.0
31.135245850 539.0
31.187766980 484.0
31.240288111 541.0
31.292809242 531.0
31.345330372 492.0
31.397851503 492.0
31.450372634 497.0
31.502893765 470.0
31.555414895 512.0
31.607936026 506.0
31.660457157 530.0
31.712978287 459.0
31.765499418 491.0
31.818020549 434.0
31.870541679 486.0
31.923062810 510.0
31.975583941 492.0
32.028105072 468.0
32.080626202 504.0
32.133147333 533.0
32.185668464 459.0
32.238189594 464.0
32.290710725 537.0
32.343231856 496.0
32.395752986 465.0
32.448274117 473.0
32.500795248 482.0
32.553316379 469.0
32.605837509 539.0
32.658358640 482.0
32.710879771 516.0
32.763400901 534.0
32.815922032 555.0
32.868443163 499.0
32.920964294 463.0
32.973485424 513.0
33.026006555 482.0
33.078527686 507.0
33.131048816 505.0
33.183569947 517.0
33.236091078 457.0
33.288612208 498.0
33.341133339 492.0
33.393654470 504.0
33.446175601 532.0
33.498696731 445.0
33.551217862 522.0
33.603738993 543.0
33.656260123 487.0
33.708781254 474.0
33.761302385 498.0
33.813823516 506.0
33.866344646 516.0
33.918865777 510.0
33.971386908 478.0
34.023908038 466.0
34.076429169 509.0
34.128950300 494.0
34.181471430 509.0
34.233992561 485.0
34.286513692 489.0
34.339034823 474.0
34.391555953 500.0
34.444077084 467.0
34.496598215 485.0
34.549119345 497.0
34.601640476 496.0
34.654161607 528.0
34.706682737 495.0
34.759203868 483.0
34.811724999 507.0
34.864246130 500.0
34.916767260 524.0
34.969288391 520.0
35.021809522 511.0
35.074330652 520.0
35.126851783 529.0
35.179372914 512.0
35.231894045 576.0
35.284415175 589.0
35.336936306 700.0
35.389457437 942.0
35.441978567 1231.0
35.494499698 1104.0
35.547020829 817.0
35.599541959 588.0
35.652063090 574.0
35.704584221 497.0
35.757105352 505.0
35.809626482 517.0
35.862147613 500.0
35.914668744 512.0
35.967189874 491.0
36.019711005 529.0
36.072232136 505.0
36.124753267 506.0
36.177274397 506.0
36.229795528 517.0
36.282316659 488.0
36.334837789 523.0
36.387358920 482.0
36.439880051 474.0
36.492401181 493.0
36.544922312 520.0
36.597443443 498.0
36.649964574 501.0
36.702485704 503.0
36.755006835 544.0
36.807527966 504.0
36.860049096 487.0
36.912570227 503.0
36.965091358 498.0
37.017612488 573.0
37.070133619 572.0
37.122654750 550.0
37.175175881 541.0
37.227697011 513.0
37.280218142 471.0
37.332739273 525.0
37.385260403 487.0
37.437781534 428.0
37.490302665 492.0
37.542823796 494.0
37.595344926 515.0
37.647866057 526.0
37.700387188 536.0
37.752908318 487.0
37.805429449 473.0
37.857950580 502.0
37.910471710 497.0
37.962992841 476.0
38.015513972 466.0
38.068035103 454.0
38.120556233 460.0
38.173077364 446.0
38.225598495 501.0
38.278119625 492.0
38.330640756 497.0
38.383161887 474.0
38.435683018 511.0
38.488204148 498.0
38.540725279 491.0
38.593246410 529.0
38.645767540 477.0
38.698288671 526.0
38.750809802 495.0
38.803330932 476.0
38.855852063 486.0
38.908373194 523.0
38.960894325 521.0
39.013415455 473.0
39.065936586 514.0
39.118457717 495.0
39.170978847 508.0
39.223499978 501.0
39.276021109 483.0
39.328542239 467.0
39.381063370 516.0
39.433584501 499.0
39.486105632 496.0
39.538626762 488.0
39.591147893 473.0
39.643669024 457.0
39.696190154 462.0
39.748711285 478.0
39.801232416 460.0
39.853753547 493.0
39.906274677 494.0
39.958795808 519.0
40.011316939 504.0
40.063838069 477.0
40.116359200 466.0
40.168880331 507.0
40.221401461 448.0
40.273922592 464.0
40.326443723 466.0
40.378964854 471.0
40.431485984 455.0
40.484007115 438.0
40.536528246 481.0
40.589049376 469.0
40.641570507 476.0
40.694091638 554.0
40.746612769 491.0
40.799133899 492.0
40.851655030 482.0
40.904176161 542.0
40.956697291 523.0
41.009218422 455.0
41.061739553 459.0
41.114260683 468.0
41.166781814 499.0
41.219302945 496.0
41.271824076 452.0
41.324345206 432.0
41.376866337 527.0
41.429387468 482.0
41.481908598 470.0
41.534429729 509.0
41.586950860 498.0
41.639471990 489.0
41.691993121 474.0
41.744514252 489.0
41.797035383 494.0
41.849556513 478.0
41.902077644 494.0
41.954598775 467.0
42.007119905 469.0
42.059641036 488.0
42.112162167 475.0
42.164683298 483.0
42.217204428 447.0
42.269725559 443.0
42.322246690 485.0
42.374767820 484.0
42.427288951 523.0
42.479810082 503.0
42.532331212 496.0
42.584852343 461.0
42.637373474 473.0
42.689894605 484.0
42.742415735 460.0
42.794936866 495.0
42.847457997 511.0
42.899979127 482.0
42.952500258 516.0
43.005021389 573.0
43.057542520 614.0
43.110063650 645.0
43.162584781 596.0
43.215105912 497.0
43.267627042 501.0
43.320148173 465.0
43.372669304 548.0
43.425190434 495.0
43.477711565 483.0
43.530232696 443.0
43.582753827 480.0
43.635274957 500.0
43.687796088 495.0
43.740317219 480.0
43.792838349 487.0
43.845359480 470.0
43.897880611 469.0
43.950401741 503.0
44.002922872 475.0
44.055444003 475.0
44.107965134 499.0
44.160486264 474.0
44.213007395 441.0
44.265528526 429.0
44.318049656 460.0
44.370570787 530.0
44.423091918 477.0
44.475613049 510.0
44.528134179 461.0
44.580655310 467.0
44.633176441 489.0
44.685697571 466.0
44.738218702 485.0
44.790739833 468.0
44.843260963 492.0
44.895782094 475.0
44.948303225 466.0
45.000824356 486.0
45.053345486 463.0
45.105866617 513.0
45.158387748 494.0
45.210908878 493.0
45.263430009 482.0
45.315951140 499.0
45.368472271 533.0
45.420993401 477.0
45.473514532 492.0
45.526035663 469.0
45.578556793 505.0
45.631077924 468.0
45.683599055 468.0
45.736120185 481.0
45.788641316 466.0
45.841162447 478.0
45.893683578 465.0
45.946204708 472.0
45.998725839 497.0
46.051246970 469.0
46.103768100 461.0
46.156289231 471.0
46.208810362 484.0
46.261331492 481.0
46.313852623 473.0
46.366373754 474.0
46.418894885 458.0
46.471416015 515.0
46.523937146 531.0
46.576458277 464.0
46.628979407 479.0
46.681500538 450.0
46.734021669 473.0
46.786542800 486.0
46.839063930 516.0
46.891585061 499.0
46.944106192 503.0
46.996627322 505.0
47.049148453 477.0
47.101669584 474.0
47.154190714 500.0
47.206711845 498.0
47.259232976 473.0
47.311754107 490.0
47.364275237 467.0
47.416796368 496.0
47.469317499 480.0
47.521838629 491.0
47.574359760 477.0
47.626880891 453.0
47.679402022 495.0
47.731923152 464.0
47.784444283 478.0
47.836965414 501.0
47.889486544 470.0
47.942007675 465.0
47.994528806 498.0
48.047049936 508.0
48.099571067 433.0
48.152092198 493.0
48.204613329 461.0
48.257134459 474.0
48.309655590 510.0
48.362176721 482.0
48.414697851 496.0
48.467218982 477.0
48.519740113 477.0
48.572261243 495.0
48.624782374 471.0
48.677303505 463.0
48.729824636 499.0
48.782345766 503.0
48.834866897 508.0
48.887388028 469.0
48.939909158 448.0
48.992430289 482.0
49.044951420 503.0
49.097472551 480.0
49.149993681 498.0
49.202514812 450.0
49.255035943 467.0
49.307557073 464.0
49.360078204 505.0
49.412599335 469.0
49.465120465 487.0
49.517641596 507.0
49.570162727 495.0
49.622683858 487.0
49.675204988 434.0
49.727726119 476.0
49.780247250 515.0
49.832768380 431.0
49.885289511 476.0
49.937810642 484.0
49.990331772 433.0
50.042852903 464.0
50.095374034 468.0
50.147895165 487.0
50.200416295 449.0
50.252937426 440.0
50.305458557 500.0
50.357979687 480.0
50.410500818 472.0
50.463021949 506.0
50.515543080 489.0
50.568064210 460.0
50.620585341 435.0
50.673106472 515.0
50.725627602 488.0
50.778148733 482.0
50.830669864 493.0
50.883190994 441.0
50.935712125 464.0
50.988233256 447.0
51.040754387 500.0
51.093275517 463.0
51.145796648 420.0
51.198317779 480.0
51.250838909 467.0
51.303360040 481.0
51.355881171 494.0
51.408402302 471.0
51.460923432 520.0
51.513444563 473.0
51.565965694 468.0
51.618486824 495.0
51.671007955 497.0
51.723529086 484.0
51.776050216 487.0
51.828571347 439.0
51.881092478 457.0
51.933613609 474.0
51.986134739 451.0
52.038655870 473.0
52.091177001 478.0
52.143698131 440.0
52.196219262 478.0
52.248740393 479.0
52.301261523 478.0
52.353782654 485.0
52.406303785 463.0
52.458824916 475.0
52.511346046 463.0
52.563867177 497.0
52.616388308 479.0
52.668909438 520.0
52.721430569 501.0
52.773951700 436.0
52.826472831 478.0
52.878993961 497.0
52.931515092 455.0
52.984036223 496.0
53.036557353 464.0
53.089078484 506.0
53.141599615 511.0
53.194120745 498.0
53.246641876 465.0
53.299163007 486.0
53.351684138 487.0
53.404205268 548.0
53.456726399 580.0
53.509247530 503.0
53.561768660 513.0
53.614289791 508.0
53.666810922 508.0
53.719332053 431.0
53.771853183 455.0
53.824374314 406.0
53.876895445 486.0
53.929416575 471.0
53.981937706 484.0
54.034458837 502.0
54.086979967 447.0
54.139501098 471.0
54.192022229 470.0
54.244543360 457.0
54.297064490 475.0
54.349585621 437.0
54.402106752 434.0
54.454627882 457.0
54.507149013 460.0
54.559670144 437.0
54.612191274 457.0
54.664712405 502.0
54.717233536 465.0
54.769754667 436.0
54.822275797 486.0
54.874796928 427.0
54.927318059 463.0
54.979839189 491.0
55.032360320 510.0
55.084881451 493.0
55.137402582 499.0
55.189923712 496.0
55.242444843 490.0
55.294965974 456.0
55.347487104 465.0
55.400008235 463.0
55.452529366 514.0
55.505050496 509.0
55.557571627 471.0
55.610092758 448.0
55.662613889 466.0
55.715135019 476.0
55.767656150 484.0
55.820177281 467.0
55.872698411 467.0
55.925219542 450.0
55.977740673 446.0
56.030261804 447.0
56.082782934 435.0
56.135304065 465.0
56.187825196 458.0
56.240346326 509.0
56.292867457 489.0
56.345388588 499.0
56.397909718 484.0
56.450430849 479.0
56.502951980 455.0
56.555473111 438.0
56.607994241 441.0
56.660515372 468.0
56.713036503 440.0
56.765557633 435.0
56.818078764 498.0
56.870599895 601.0
56.923121025 629.0
56.975642156 688.0
57.028163287 641.0
57.080684418 546.0
57.133205548 493.0
57.185726679 509.0
57.238247810 490.0
57.290768940 496.0
57.343290071 486.0
57.395811202 476.0
57.448332333 439.0
57.500853463 490.0
57.553374594 466.0
57.605895725 465.0
57.658416855 449.0
57.710937986 475.0
57.763459117 447.0
57.815980247 463.0
57.868501378 458.0
57.921022509 472.0
57.973543640 475.0
58.026064770 454.0
58.078585901 435.0
58.131107032 466.0
58.183628162 444.0
58.236149293 439.0
58.288670424 483.0
58.341191555 443.0
58.393712685 478.0
58.446233816 496.0
58.498754947 488.0
58.551276077 426.0
58.603797208 453.0
58.656318339 452.0
58.708839469 461.0
58.761360600 420.0
58.813881731 430.0
58.866402862 455.0
58.918923992 490.0
58.971445123 488.0
59.023966254 477.0
59.076487384 450.0
59.129008515 456.0
59.181529646 454.0
59.234050776 476.0
59.286571907 496.0
59.339093038 466.0
59.391614169 491.0
59.444135299 450.0
59.496656430 448.0
59.549177561 470.0
59.601698691 465.0
59.654219822 459.0
59.706740953 450.0
59.759262084 459.0
59.811783214 472.0
59.864304345 443.0
59.916825476 450.0
59.969346606 502.0
60.021867737 491.0
60.074388868 476.0
60.126909998 462.0
60.179431129 461.0
60.231952260 445.0
60.284473391 473.0
60.336994521 466.0
60.389515652 485.0
60.442036783 470.0
60.494557913 488.0
60.547079044 444.0
60.599600175 490.0
60.652121306 448.0
60.704642436 487.0
60.757163567 459.0
60.809684698 444.0
60.862205828 493.0
60.914726959 478.0
60.967248090 488.0
61.019769220 479.0
61.072290351 433.0
61.124811482 472.0
61.177332613 453.0
61.229853743 475.0
61.282374874 428.0
61.334896005 454.0
61.387417135 428.0
61.439938266 471.0
61.492459397 434.0
61.544980527 476.0
61.597501658 457.0
61.650022789 448.0
61.702543920 464.0
61.755065050 432.0
61.807586181 452.0
61.860107312 514.0
61.912628442 494.0
61.965149573 476.0
62.017670704 522.0
62.070191835 510.0
62.122712965 495.0
62.175234096 481.0
62.227755227 455.0
62.280276357 456.0
62.332797488 470.0
62.385318619 499.0
62.437839749 548.0
62.490360880 698.0
62.542882011 793.0
62.595403142 777.0
62.647924272 657.0
62.700445403 560.0
62.752966534 502.0
62.805487664 466.0
62.858008795 485.0
62.910529926 472.0
62.963051057 486.0
63.015572187 421.0
63.068093318 480.0
63.120614449 500.0
63.173135579 453.0
63.225656710 486.0
63.278177841 449.0
63.330698971 498.0
63.383220102 462.0
63.435741233 473.0
63.488262364 422.0
63.540783494 470.0
63.593304625 453.0
63.645825756 456.0
63.698346886 474.0
63.750868017 422.0
63.803389148 451.0
63.855910278 473.0
63.908431409 449.0
63.960952540 443.0
64.013473671 440.0
64.065994801 488.0
64.118515932 499.0
64.171037063 449.0
64.223558193 489.0
64.276079324 437.0
64.328600455 433.0
64.381121586 458.0
64.433642716 474.0
64.486163847 432.0
64.538684978 424.0
64.591206108 474.0
64.643727239 449.0
64.696248370 441.0
64.748769500 447.0
64.801290631 467.0
64.853811762 486.0
64.906332893 464.0
64.958854023 458.0
65.011375154 419.0
65.063896285 485.0
65.116417415 453.0
65.168938546 432.0
65.221459677 423.0
65.273980808 452.0
65.326501938 438.0
65.379023069 461.0
65.431544200 485.0
65.484065330 417.0
65.536586461 480.0
65.589107592 438.0
65.641628722 464.0
65.694149853 460.0
65.746670984 501.0
65.799192115 458.0
65.851713245 457.0
65.904234376 462.0
65.956755507 431.0
66.009276637 449.0
66.061797768 445.0
66.114318899 471.0
66.166840029 441.0
66.219361160 454.0
66.271882291 466.0
66.324403422 428.0
66.376924552 439.0
66.429445683 456.0
66.481966814 456.0
66.534487944 501.0
66.587009075 458.0
66.639530206 451.0
66.692051337 463.0
66.744572467 433.0
66.797093598 450.0
66.849614729 441.0
66.902135859 466.0
66.954656990 454.0
67.007178121 453.0
67.059699251 472.0
67.112220382 448.0
67.164741513 492.0
67.217262644 446.0
67.269783774 474.0
67.322304905 424.0
67.374826036 467.0
67.427347166 441.0
67.479868297 455.0
67.532389428 433.0
67.584910559 444.0
67.637431689 455.0
67.689952820 421.0
67.742473951 437.0
67.794995081 461.0
67.847516212 441.0
67.900037343 465.0
67.952558473 445.0
68.005079604 471.0
68.057600735 460.0
68.110121866 461.0
68.162642996 444.0
68.215164127 462.0
68.267685258 473.0
68.320206388 467.0
68.372727519 471.0
68.425248650 434.0
68.477769780 458.0
68.530290911 450.0
68.582812042 425.0
68.635333173 448.0
68.687854303 460.0
68.740375434 433.0
68.792896565 489.0
68.845417695 457.0
68.897938826 421.0
68.950459957 434.0
69.002981088 463.0
69.055502218 491.0
69.108023349 449.0
69.160544480 432.0
69.213065610 464.0
69.265586741 406.0
69.318107872 453.0
69.370629002 437.0
69.423150133 435.0
69.475671264 430.0
69.528192395 474.0
69.580713525 434.0
69.633234656 434.0
69.685755787 457.0
69.738276917 484.0
69.790798048 472.0
69.843319179 472.0
69.895840310 450.0
69.948361440 449.0
70.000882571 431.0
70.053403702 501.0
70.105924832 422.0
70.158445963 428.0
70.210967094 434.0
70.263488224 442.0
70.316009355 459.0
70.368530486 466.0
70.421051617 453.0
70.473572747 480.0
70.526093878 426.0
70.578615009 465.0
70.631136139 427.0
70.683657270 441.0
70.736178401 432.0
70.788699531 450.0
70.841220662 458.0
70.893741793 443.0
70.946262924 483.0
70.998784054 499.0
71.051305185 479.0
71.103826316 489.0
71.156347446 443.0
71.208868577 476.0
71.261389708 462.0
71.313910839 456.0
71.366431969 465.0
71.418953100 473.0
71.471474231 462.0
71.523995361 437.0
71.576516492 412.0
71.629037623 477.0
71.681558753 414.0
71.734079884 463.0
71.786601015 445.0
71.839122146 415.0
71.891643276 447.0
71.944164407 470.0
71.996685538 450.0
72.049206668 441.0
72.101727799 397.0
72.154248930 459.0
72.206770060 433.0
72.259291191 445.0
72.311812322 420.0
72.364333453 459.0
72.416854583 389.0
72.469375714 464.0
72.521896845 447.0
72.574417975 464.0
72.626939106 400.0
72.679460237 486.0
72.731981368 486.0
72.784502498 444.0
72.837023629 439.0
72.889544760 454.0
72.942065890 441.0
72.994587021 409.0
73.047108152 433.0
73.099629282 443.0
73.152150413 450.0
73.204671544 433.0
73.257192675 437.0
73.309713805 442.0
73.362234936 423.0
73.414756067 427.0
73.467277197 445.0
73.519798328 480.0
73.572319459 490.0
73.624840590 475.0
73.677361720 431.0
73.729882851 438.0
73.782403982 449.0
73.834925112 441.0
73.887446243 495.0
73.939967374 462.0
73.992488504 525.0
74.045009635 489.0
74.097530766 481.0
74.150051897 479.0
74.202573027 454.0
74.255094158 455.0
74.307615289 446.0
74.360136419 479.0
74.412657550 432.0
74.465178681 456.0
74.517699811 437.0
74.570220942 428.0
74.622742073 458.0
74.675263204 405.0
74.727784334 431.0
74.780305465 433.0
74.832826596 471.0
74.885347726 430.0
74.937868857 510.0
74.990389988 482.0
75.042911119 445.0
75.095432249 462.0
75.147953380 431.0
75.200474511 426.0
75.252995641 407.0
75.305516772 456.0
75.358037903 458.0
75.410559033 426.0
75.463080164 428.0
75.515601295 419.0
75.568122426 448.0
75.620643556 462.0
75.673164687 459.0
75.725685818 458.0
75.778206948 440.0
75.830728079 448.0
75.883249210 442.0
75.935770341 440.0
75.988291471 448.0
76.040812602 450.0
76.093333733 427.0
76.145854863 445.0
76.198375994 464.0
76.250897125 463.0
76.303418255 460.0
76.355939386 468.0
76.408460517 409.0
76.460981648 445.0
76.513502778 464.0
76.566023909 413.0
76.618545040 484.0
76.671066170 445.0
76.723587301 462.0
76.776108432 446.0
76.828629562 437.0
76.881150693 424.0
76.933671824 422.0
76.986192955 443.0
77.038714085 435.0
77.091235216 449.0
77.143756347 431.0
77.196277477 500.0
77.248798608 448.0
77.301319739 425.0
77.353840870 385.0
77.406362000 460.0
77.458883131 430.0
77.511404262 437.0
77.563925392 423.0
77.616446523 447.0
77.668967654 468.0
77.721488784 409.0
77.774009915 442.0
77.826531046 444.0
77.879052177 467.0
77.931573307 421.0
77.984094438 471.0
78.036615569 411.0
78.089136699 402.0
78.141657830 460.0
78.194178961 465.0
78.246700092 434.0
78.299221222 421.0
78.351742353 453.0
78.404263484 446.0
78.456784614 459.0
78.509305745 455.0
78.561826876 441.0
78.614348006 441.0
78.666869137 441.0
78.719390268 430.0
78.771911399 438.0
78.824432529 423.0
78.876953660 441.0
78.929474791 500.0
78.981995921 426.0
79.034517052 465.0
79.087038183 448.0
79.139559313 401.0
79.192080444 399.0
79.244601575 491.0
79.297122706 444.0
79.349643836 420.0
79.402164967 474.0
79.454686098 429.0
79.507207228 472.0
79.559728359 440.0
79.612249490 449.0
79.664770621 455.0
79.717291751 419.0
79.769812882 429.0
79.822334013 471.0
79.874855143 439.0
79.927376274 431.0
79.979897405 431.0
80.032418535 464.0
80.084939666 443.0
80.137460797 403.0
80.189981928 453.0
80.242503058 439.0
80.295024189 381.0
80.347545320 461.0
80.400066450 393.0
80.452587581 473.0
80.505108712 476.0
80.557629843 400.0
80.610150973 475.0
80.662672104 440.0
80.715193235 441.0
80.767714365 467.0
80.820235496 445.0
80.872756627 441.0
80.925277757 453.0
80.977798888 441.0
81.030320019 439.0
81.082841150 421.0
81.135362280 422.0
81.187883411 481.0
81.240404542 423.0
81.292925672 457.0
81.345446803 427.0
81.397967934 433.0
81.450489064 465.0
81.503010195 415.0
81.555531326 429.0
81.608052457 441.0
81.660573587 458.0
81.713094718 449.0
81.765615849 440.0
81.818136979 417.0
81.870658110 444.0
81.923179241 439.0
81.975700372 424.0
82.028221502 414.0
82.080742633 389.0
82.133263764 429.0
82.185784894 389.0
82.238306025 430.0
82.290827156 414.0
82.343348286 455.0
82.395869417 437.0
82.448390548 456.0
82.500911679 412.0
82.553432809 446.0
82.605953940 444.0
82.658475071 431.0
82.710996201 410.0
82.763517332 423.0
82.816038463 433.0
82.868559594 465.0
82.921080724 465.0
82.973601855 446.0
83.026122986 443.0
83.078644116 455.0
83.131165247 447.0
83.183686378 446.0
83.236207508 419.0
83.288728639 428.0
83.341249770 436.0
83.393770901 415.0
83.446292031 427.0
83.498813162 466.0
83.551334293 455.0
83.603855423 416.0
83.656376554 422.0
83.708897685 424.0
83.761418815 406.0
83.813939946 440.0
83.866461077 429.0
83.918982208 425.0
83.971503338 419.0
84.024024469 425.0
84.076545600 414.0
84.129066730 465.0
84.181587861 402.0
84.234108992 436.0
84.286630123 469.0
84.339151253 401.0
84.391672384 405.0
84.444193515 437.0
84.496714645 433.0
84.549235776 420.0
84.601756907 479.0
84.654278037 436.0
84.706799168 426.0
84.759320299 452.0
84.811841430 417.0
84.864362560 413.0
84.916883691 392.0
84.969404822 503.0
85.021925952 416.0
85.074447083 416.0
85.126968214 447.0
85.179489345 442.0
85.232010475 454.0
85.284531606 424.0
85.337052737 436.0
85.389573867 442.0
85.442094998 425.0
85.494616129 471.0
85.547137259 385.0
85.599658390 405.0
85.652179521 424.0
85.704700652 437.0
85.757221782 474.0
85.809742913 445.0
85.862264044 463.0
85.914785174 429.0
85.967306305 396.0
86.019827436 433.0
86.072348566 463.0
86.124869697 455.0
86.177390828 398.0
86.229911959 427.0
86.282433089 438.0
86.334954220 421.0
86.387475351 442.0
86.439996481 424.0
86.492517612 422.0
86.545038743 426.0
86.597559874 451.0
86.650081004 464.0
86.702602135 433.0
86.755123266 489.0
86.807644396 426.0
86.860165527 443.0
86.912686658 433.0
86.965207788 429.0
87.017728919 410.0
87.070250050 454.0
87.122771181 423.0
87.175292311 444.0
87.227813442 426.0
87.280334573 478.0
87.332855703 403.0
87.385376834 429.0
87.437897965 417.0
87.490419096 386.0
87.542940226 404.0
87.595461357 457.0
87.647982488 407.0
87.700503618 420.0
87.753024749 425.0
87.805545880 417.0
87.858067010 458.0
87.910588141 441.0
87.963109272 416.0
88.015630403 419.0
88.068151533 384.0
88.120672664 443.0
88.173193795 448.0
88.225714925 422.0
88.278236056 428.0
88.330757187 440.0
88.383278317 440.0
88.435799448 432.0
88.488320579 435.0
88.540841710 429.0
88.593362840 438.0
88.645883971 435.0
88.698405102 401.0
88.750926232 450.0
88.803447363 405.0
88.855968494 435.0
88.908489625 434.0
88.961010755 443.0
89.013531886 406.0
89.066053017 417.0
89.118574147 381.0
89.171095278 417.0
89.223616409 434.0
89.276137539 412.0
89.328658670 442.0
89.381179801 446.0
89.433700932 427.0
89.486222062 443.0
89.538743193 488.0
89.591264324 505.0
89.643785454 562.0
89.696306585 487.0
89.748827716 461.0
89.801348847 460.0
89.853869977 440.0
89.906391108 417.0
89.958912239 424.0
90.011433369 409.0
90.063954500 437.0
90.116475631 399.0
90.168996761 441.0
90.221517892 465.0
90.274039023 441.0
90.326560154 428.0
90.379081284 452.0
90.431602415 423.0
90.484123546 462.0
90.536644676 388.0
90.589165807 429.0
90.641686938 419.0
90.694208068 428.0
90.746729199 402.0
90.799250330 411.0
90.851771461 425.0
90.904292591 419.0
90.956813722 433.0
91.009334853 448.0
91.061855983 422.0
91.114377114 392.0
91.166898245 425.0
91.219419376 390.0
91.271940506 424.0
91.324461637 429.0
91.376982768 450.0
91.429503898 409.0
91.482025029 418.0
91.534546160 412.0
91.587067290 397.0
91.639588421 404.0
91.692109552 428.0
91.744630683 410.0
91.797151813 421.0
91.849672944 442.0
91.902194075 444.0
91.954715205 440.0
92.007236336 414.0
92.059757467 417.0
92.112278598 438.0
92.164799728 424.0
92.217320859 439.0
92.269841990 402.0
92.322363120 397.0
92.374884251 420.0
92.427405382 424.0
92.479926512 434.0
92.532447643 450.0
92.584968774 390.0
92.637489905 413.0
92.690011035 419.0
92.742532166 454.0
92.795053297 417.0
92.847574427 412.0
92.900095558 415.0
92.952616689 445.0
93.005137819 448.0
93.057658950 440.0
93.110180081 415.0
93.162701212 422.0
93.215222342 384.0
93.267743473 410.0
93.320264604 419.0
93.372785734 464.0
93.425306865 426.0
93.477827996 416.0
93.530349127 426.0
93.582870257 436.0
93.635391388 426.0
93.687912519 450.0
93.740433649 396.0
93.792954780 417.0
93.845475911 447.0
93.897997041 419.0
93.950518172 409.0
94.003039303 410.0
94.055560434 440.0
94.108081564 410.0
94.160602695 389.0
94.213123826 434.0
94.265644956 436.0
94.318166087 418.0
94.370687218 439.0
94.423208348 445.0
94.475729479 456.0
94.528250610 452.0
94.580771741 487.0
94.633292871 430.0
94.685814002 436.0
94.738335133 438.0
94.790856263 395.0
94.843377394 431.0
94.895898525 417.0
94.948419656 402.0
95.000940786 444.0
95.053461917 390.0
95.105983048 405.0
95.158504178 390.0
95.211025309 453.0
95.263546440 424.0
95.316067570 420.0
95.368588701 437.0
95.421109832 468.0
95.473630963 420.0
95.526152093 381.0
95.578673224 431.0
95.631194355 427.0
95.683715485 431.0
95.736236616 449.0
95.788757747 417.0
95.841278878 408.0
95.893800008 430.0
95.946321139 430.0
95.998842270 385.0
96.051363400 439.0
96.103884531 452.0
96.156405662 433.0
96.208926792 427.0
96.261447923 427.0
96.313969054 438.0
96.366490185 394.0
96.419011315 406.0
96.471532446 435.0
96.524053577 451.0
96.576574707 428.0
96.629095838 407.0
96.681616969 382.0
96.734138099 443.0
96.786659230 446.0
96.839180361 394.0
96.891701492 453.0
96.944222622 409.0
96.996743753 436.0
97.049264884 414.0
97.101786014 420.0
97.154307145 436.0
97.206828276 437.0
97.259349407 400.0
97.311870537 436.0
97.364391668 411.0
97.416912799 413.0
97.469433929 442.0
97.521955060 417.0
97.574476191 420.0
97.626997321 440.0
97.679518452 424.0
97.732039583 409.0
97.784560714 422.0
97.837081844 425.0
97.889602975 365.0
97.942124106 386.0
97.994645236 406.0
98.047166367 407.0
98.099687498 408.0
98.152208629 424.0
98.204729759 460.0
98.257250890 369.0
98.309772021 427.0
98.362293151 413.0
98.414814282 399.0
98.467335413 403.0
98.519856543 415.0
98.572377674 407.0
98.624898805 412.0
98.677419936 400.0
98.729941066 411.0
98.782462197 397.0
98.834983328 442.0
98.887504458 404.0
98.940025589 379.0
98.992546720 426.0
99.045067850 428.0
99.097588981 448.0
99.150110112 410.0
99.202631243 421.0
99.255152373 376.0
99.307673504 414.0
99.360194635 434.0
99.412715765 431.0
99.465236896 364.0
99.517758027 432.0
99.570279158 411.0
99.622800288 429.0
99.675321419 430.0
99.727842550 440.0
99.780363680 429.0
99.832884811 430.0
99.885405942 383.0
99.937927072 443.0
99.990448203 400.0
100.042969334 442.0
100.095490465 436.0
100.148011595 393.0
100.200532726 437.0
100.253053857 419.0
100.305574987 410.0
100.358096118 433.0
100.410617249 416.0
100.463138380 445.0
100.515659510 426.0
100.568180641 424.0
100.620701772 426.0
100.673222902 406.0
100.725744033 376.0
100.778265164 374.0
100.830786294 454.0
100.883307425 432.0
100.935828556 381.0
100.988349687 363.0
101.040870817 439.0
101.093391948 458.0
101.145913079 464.0
101.198434209 386.0
101.250955340 423.0
101.303476471 403.0
101.355997601 458.0
101.408518732 427.0
101.461039863 403.0
101.513560994 442.0
101.566082124 411.0
101.618603255 425.0
101.671124386 406.0
101.723645516 418.0
101.776166647 393.0
101.828687778 429.0
101.881208909 409.0
101.933730039 416.0
101.986251170 411.0
102.038772301 427.0
102.091293431 399.0
102.143814562 413.0
102.196335693 398.0
102.248856823 454.0
102.301377954 419.0
102.353899085 407.0
102.406420216 392.0
102.458941346 435.0
102.511462477 442.0
102.563983608 385.0
102.616504738 406.0
102.669025869 419.0
102.721547000 399.0
102.774068131 459.0
102.826589261 450.0
102.879110392 403.0
102.931631523 417.0
102.984152653 385.0
103.036673784 424.0
103.089194915 387.0
103.141716045 423.0
103.194237176 429.0
103.246758307 410.0
103.299279438 416.0
103.351800568 421.0
103.404321699 441.0
103.456842830 426.0
103.509363960 407.0
103.561885091 358.0
103.614406222 457.0
103.666927352 411.0
103.719448483 401.0
103.771969614 416.0
103.824490745 448.0
103.877011875 408.0
103.929533006 401.0
103.982054137 416.0
104.034575267 404.0
104.087096398 409.0
104.139617529 402.0
104.192138660 397.0
104.244659790 394.0
104.297180921 409.0
104.349702052 406.0
104.402223182 416.0
104.454744313 426.0
104.507265444 429.0
104.559786574 385.0
104.612307705 392.0
104.664828836 427.0
104.717349967 435.0
104.769871097 403.0
104.822392228 397.0
104.874913359 384.0
104.927434489 429.0
104.979955620 415.0
105.032476751 444.0
105.084997882 439.0
105.137519012 449.0
105.190040143 438.0
105.242561274 450.0
105.295082404 440.0
105.347603535 433.0
105.400124666 423.0
105.452645796 408.0
105.505166927 392.0
105.557688058 391.0
105.610209189 400.0
105.662730319 387.0
105.715251450 404.0
105.767772581 386.0
105.820293711 397.0
105.872814842 388.0
105.925335973 397.0
105.977857103 421.0
106.030378234 441.0
106.082899365 407.0
106.135420496 382.0
106.187941626 428.0
106.240462757 420.0
106.292983888 434.0
106.345505018 448.0
106.398026149 416.0
106.450547280 395.0
106.503068411 390.0
106.555589541 394.0
106.608110672 381.0
106.660631803 404.0
106.713152933 414.0
106.765674064 411.0
106.818195195 390.0
106.870716325 357.0
106.923237456 401.0
106.975758587 408.0
107.028279718 399.0
107.080800848 407.0
107.133321979 418.0
107.185843110 404.0
107.238364240 439.0
107.290885371 405.0
107.343406502 392.0
107.395927633 450.0
107.448448763 398.0
107.500969894 413.0
107.553491025 382.0
107.606012155 427.0
107.658533286 418.0
107.711054417 427.0
107.763575547 444.0
107.816096678 401.0
107.868617809 407.0
107.921138940 411.0
107.973660070 389.0
108.026181201 415.0
108.078702332 395.0
108.131223462 354.0
108.183744593 422.0
108.236265724 417.0
108.288786854 376.0
108.341307985 373.0
108.393829116 386.0
108.446350247 409.0
108.498871377 396.0
108.551392508 427.0
108.603913639 424.0
108.656434769 410.0
108.708955900 420.0
108.761477031 397.0
108.813998162 365.0
108.866519292 389.0
108.919040423 371.0
108.971561554 413.0
109.024082684 394.0
109.076603815 399.0
109.129124946 399.0
109.181646076 406.0
109.234167207 422.0
109.286688338 401.0
109.339209469 390.0
109.391730599 364.0
109.444251730 412.0
109.496772861 373.0
109.549293991 415.0
109.601815122 443.0
109.654336253 412.0
109.706857384 393.0
109.759378514 400.0
109.811899645 381.0
109.864420776 417.0
109.916941906 377.0
109.969463037 395.0
110.021984168 397.0
110.074505298 401.0
110.127026429 417.0
110.179547560 371.0
110.232068691 386.0
110.284589821 437.0
110.337110952 430.0
110.389632083 451.0
110.442153213 411.0
110.494674344 426.0
110.547195475 404.0
110.599716605 421.0
110.652237736 431.0
110.704758867 414.0
110.757279998 426.0
110.809801128 404.0
110.862322259 349.0
110.914843390 387.0
110.967364520 412.0
111.019885651 372.0
111.072406782 410.0
111.124927913 400.0
111.177449043 407.0
111.229970174 381.0
111.282491305 443.0
111.335012435 375.0
111.387533566 367.0
111.440054697 383.0
111.492575827 369.0
111.545096958 380.0
111.597618089 407.0
111.650139220 408.0
111.702660350 418.0
111.755181481 388.0
111.807702612 387.0
111.860223742 390.0
111.912744873 368.0
111.965266004 391.0
112.017787135 392.0
112.070308265 391.0
112.122829396 421.0
112.175350527 404.0
112.227871657 401.0
112.280392788 389.0
112.332913919 384.0
112.385435049 401.0
112.437956180 433.0
112.490477311 385.0
112.542998442 376.0
112.595519572 389.0
112.648040703 424.0
112.700561834 399.0
112.753082964 409.0
112.805604095 428.0
112.858125226 397.0
112.910646356 335.0
112.963167487 423.0
113.015688618 377.0
113.068209749 417.0
113.120730879 378.0
113.173252010 412.0
113.225773141 401.0
113.278294271 365.0
113.330815402 394.0
113.383336533 346.0
113.435857664 383.0
113.488378794 408.0
113.540899925 455.0
113.593421056 448.0
113.645942186 374.0
113.698463317 402.0
113.750984448 431.0
113.803505578 395.0
113.856026709 421.0
113.908547840 419.0
113.961068971 410.0
114.013590101 395.0
114.066111232 395.0
114.118632363 411.0
114.171153493 390.0
114.223674624 394.0
114.276195755 374.0
114.328716886 390.0
114.381238016 358.0
114.433759147 375.0
114.486280278 393.0
114.538801408 364.0
114.591322539 373.0
114.643843670 439.0
114.696364800 383.0
114.748885931 398.0
114.801407062 389.0
114.853928193 406.0
114.906449323 384.0
114.958970454 410.0
115.011491585 384.0
115.064012715 366.0
115.116533846 385.0
115.169054977 398.0
115.221576107 393.0
115.274097238 383.0
115.326618369 399.0
115.379139500 434.0
115.431660630 366.0
115.484181761 371.0
115.536702892 392.0
115.589224022 408.0
115.641745153 382.0
115.694266284 386.0
115.746787415 396.0
115.799308545 388.0
115.851829676 396.0
115.904350807 427.0
115.956871937 397.0
116.009393068 391.0
116.061914199 358.0
116.114435329 371.0
116.166956460 382.0
116.219477591 386.0
116.271998722 377.0
116.324519852 390.0
116.377040983 384.0
116.429562114 416.0
116.482083244 386.0
116.534604375 386.0
116.587125506 398.0
116.639646637 413.0
116.692167767 373.0
116.744688898 406.0
116.797210029 406.0
116.849731159 434.0
116.902252290 392.0
116.954773421 391.0
117.007294551 388.0
117.059815682 383.0
117.112336813 420.0
117.164857944 380.0
117.217379074 407.0
117.269900205 406.0
117.322421336 415.0
117.374942466 391.0
117.427463597 365.0
117.479984728 360.0
117.532505858 350.0
117.585026989 392.0
117.637548120 406.0
117.690069251 370.0
117.742590381 395.0
117.795111512 372.0
117.847632643 382.0
117.900153773 436.0
117.952674904 427.0
118.005196035 413.0
118.057717166 416.0
118.110238296 358.0
118.162759427 420.0
118.215280558 402.0
118.267801688 373.0
118.320322819 386.0
118.372843950 366.0
118.425365080 326.0
118.477886211 399.0
118.530407342 384.0
118.582928473 377.0
118.635449603 383.0
118.687970734 399.0
118.740491865 382.0
118.793012995 405.0
118.845534126 395.0
118.898055257 420.0
118.950576387 378.0
119.003097518 383.0
119.055618649 402.0
119.108139780 370.0
119.160660910 420.0
119.213182041 357.0
119.265703172 347.0
119.318224302 398.0
119.370745433 383.0
119.423266564 360.0
119.475787695 390.0
119.528308825 373.0
119.580829956 414.0
119.633351087 392.0
119.685872217 382.0
119.738393348 409.0
119.790914479 405.0
119.843435609 380.0
119.895956740 387.0
119.948477871 390.0
120.000999002 383.0
120.053520132 388.0
120.106041263 416.0
120.158562394 389.0
120.211083524 391.0
120.263604655 355.0
120.316125786 365.0
120.368646917 332.0
120.421168047 379.0
120.473689178 385.0
120.526210309 388.0
120.578731439 402.0
120.631252570 346.0
120.683773701 383.0
120.736294831 416.0
120.788815962 399.0
120.841337093 396.0
120.893858224 370.0
120.946379354 420.0
120.998900485 420.0
121.051421616 391.0
121.103942746 399.0
121.156463877 378.0
121.208985008 404.0
121.261506138 366.0
121.314027269 386.0
121.366548400 358.0
121.419069531 368.0
121.471590661 368.0
121.524111792 408.0
121.576632923 377.0
121.629154053 362.0
121.681675184 371.0
121.734196315 371.0
121.786717446 377.0
121.839238576 364.0
121.891759707 383.0
121.944280838 388.0
121.996801968 416.0
122.049323099 401.0
122.101844230 382.0
122.154365360 429.0
122.206886491 407.0
122.259407622 402.0
122.311928753 395.0
122.364449883 437.0
122.416971014 390.0
122.469492145 357.0
122.522013275 381.0
122.574534406 396.0
122.627055537 394.0
122.679576668 373.0
122.732097798 401.0
122.784618929 353.0
122.837140060 398.0
122.889661190 393.0
122.942182321 355.0
122.994703452 337.0
123.047224582 386.0
123.099745713 358.0
123.152266844 420.0
123.204787975 396.0
123.257309105 393.0
123.309830236 397.0
123.362351367 364.0
123.414872497 395.0
123.467393628 377.0
123.519914759 356.0
123.572435889 389.0
123.624957020 391.0
123.677478151 358.0
123.729999282 382.0
123.782520412 376.0
123.835041543 390.0
123.887562674 428.0
123.940083804 387.0
123.992604935 428.0
124.045126066 387.0
124.097647197 398.0
124.150168327 386.0
124.202689458 397.0
124.255210589 373.0
124.307731719 393.0
124.360252850 375.0
124.412773981 416.0
124.465295111 341.0
124.517816242 397.0
124.570337373 383.0
124.622858504 390.0
124.675379634 381.0
124.727900765 358.0
124.780421896 420.0
124.832943026 349.0
124.885464157 370.0
124.937985288 409.0
124.990506419 408.0
125.043027549 422.0
125.095548680 363.0
125.148069811 337.0
125.200590941 393.0
125.253112072 408.0
125.305633203 414.0
125.358154333 395.0
125.410675464 368.0
125.463196595 365.0
125.515717726 396.0
125.568238856 378.0
125.620759987 364.0
125.673281118 398.0
125.725802248 373.0
125.778323379 390.0
125.830844510 368.0
125.883365640 360.0
125.935886771 420.0
125.988407902 378.0
126.040929033 400.0
126.093450163 417.0
126.145971294 372.0
126.198492425 434.0
126.251013555 400.0
126.303534686 360.0
126.356055817 370.0
126.408576948 399.0
126.461098078 442.0
126.513619209 370.0
126.566140340 389.0
126.618661470 381.0
126.671182601 402.0
126.723703732 357.0
126.776224862 391.0
126.828745993 406.0
126.881267124 417.0
126.933788255 364.0
126.986309385 368.0
127.038830516 422.0
127.091351647 381.0
127.143872777 365.0
127.196393908 366.0
127.248915039 390.0
127.301436170 376.0
127.353957300 386.0
127.406478431 370.0
127.458999562 406.0
127.511520692 378.0
127.564041823 383.0
127.616562954 330.0
127.669084084 415.0
127.721605215 359.0
127.774126346 383.0
127.826647477 389.0
127.879168607 369.0
127.931689738 418.0
127.984210869 404.0
128.036731999 430.0
128.089253130 490.0
128.141774261 369.0
128.194295391 421.0
128.246816522 389.0
128.299337653 372.0
128.351858784 407.0
128.404379914 408.0
128.456901045 387.0
128.509422176 376.0
128.561943306 390.0
128.614464437 375.0
128.666985568 396.0
128.719506699 403.0
128.772027829 397.0
128.824548960 391.0
128.877070091 420.0
128.929591221 376.0
128.982112352 375.0
129.034633483 349.0
129.087154613 382.0
129.139675744 369.0
129.192196875 383.0
129.244718006 344.0
129.297239136 376.0
129.349760267 337.0
129.402281398 383.0
129.454802528 381.0
129.507323659 367.0
129.559844790 368.0
129.612365921 360.0
129.664887051 370.0
129.717408182 364.0
129.769929313 380.0
129.822450443 387.0
129.874971574 358.0
129.927492705 372.0
129.980013835 364.0
130.032534966 367.0
130.085056097 380.0
130.137577228 414.0
130.190098358 363.0
130.242619489 370.0
130.295140620 350.0
130.347661750 382.0
130.400182881 380.0
130.452704012 369.0
130.505225142 347.0
130.557746273 354.0
130.610267404 401.0
130.662788535 389.0
130.715309665 371.0
130.767830796 370.0
130.820351927 365.0
130.872873057 386.0
130.925394188 341.0
130.977915319 377.0
131.030436450 354.0
131.082957580 364.0
131.135478711 351.0
131.187999842 391.0
131.240520972 379.0
131.293042103 367.0
131.345563234 386.0
131.398084364 357.0
131.450605495 356.0
131.503126626 408.0
131.555647757 373.0
131.608168887 400.0
131.660690018 427.0
131.713211149 378.0
131.765732279 413.0
131.818253410 360.0
131.870774541 376.0
131.923295672 424.0
131.975816802 388.0
132.028337933 409.0
132.080859064 357.0
132.133380194 358.0
132.185901325 384.0
132.238422456 366.0
132.290943586 367.0
132.343464717 363.0
132.395985848 393.0
132.448506979 393.0
132.501028109 379.0
132.553549240 371.0
132.606070371 383.0
132.658591501 320.0
132.711112632 404.0
132.763633763 347.0
132.816154893 366.0
132.868676024 391.0
132.921197155 343.0
132.973718286 376.0
133.026239416 376.0
133.078760547 356.0
133.131281678 368.0
133.183802808 369.0
133.236323939 388.0
133.288845070 359.0
133.341366201 361.0
133.393887331 338.0
133.446408462 379.0
133.498929593 369.0
133.551450723 362.0
133.603971854 371.0
133.656492985 416.0
133.709014115 396.0
133.761535246 368.0
133.814056377 386.0
133.866577508 396.0
133.919098638 337.0
133.971619769 404.0
134.024140900 382.0
134.076662030 367.0
134.129183161 389.0
134.181704292 358.0
134.234225423 385.0
134.286746553 357.0
134.339267684 346.0
134.391788815 338.0
134.444309945 356.0
134.496831076 346.0
134.549352207 385.0
134.601873337 346.0
134.654394468 379.0
134.706915599 394.0
134.759436730 353.0
134.811957860 397.0
134.864478991 333.0
134.917000122 352.0
134.969521252 378.0
135.022042383 369.0
135.074563514 373.0
135.127084644 357.0
135.179605775 389.0
135.232126906 339.0
135.284648037 340.0
135.337169167 387.0
135.389690298 375.0
135.442211429 378.0
135.494732559 388.0
135.547253690 402.0
135.599774821 366.0
135.652295952 351.0
135.704817082 362.0
135.757338213 367.0
135.809859344 365.0
135.862380474 369.0
135.914901605 346.0
135.967422736 339.0
136.019943866 383.0
136.072464997 360.0
136.124986128 335.0
136.177507259 365.0
136.230028389 341.0
136.282549520 366.0
136.335070651 350.0
136.387591781 336.0
136.440112912 379.0
136.492634043 350.0
136.545155174 381.0
136.597676304 379.0
136.650197435 336.0
136.702718566 377.0
136.755239696 351.0
136.807760827 361.0
136.860281958 382.0
136.912803088 364.0
136.965324219 365.0
137.017845350 361.0
137.070366481 343.0
137.122887611 352.0
137.175408742 355.0
137.227929873 353.0
137.280451003 349.0
137.332972134 381.0
137.385493265 345.0
137.438014395 349.0
137.490535526 384.0
137.543056657 348.0
137.595577788 359.0
137.648098918 347.0
137.700620049 326.0
137.753141180 378.0
137.805662310 352.0
137.858183441 344.0
137.910704572 348.0
137.963225703 325.0
138.015746833 358.0
138.068267964 338.0
138.120789095 342.0
138.173310225 355.0
138.225831356 382.0
138.278352487 377.0
138.330873617 346.0
138.383394748 365.0
138.435915879 370.0
138.488437010 362.0
138.540958140 375.0
138.593479271 393.0
138.646000402 369.0
138.698521532 375.0
138.751042663 387.0
138.803563794 323.0
138.856084925 425.0
138.908606055 344.0
138.961127186 369.0
139.013648317 324.0
139.066169447 370.0
139.118690578 370.0
139.171211709 381.0
139.223732839 354.0
139.276253970 339.0
139.328775101 374.0
139.381296232 352.0
139.433817362 368.0
139.486338493 367.0
139.538859624 368.0
139.591380754 354.0
139.643901885 353.0
139.696423016 376.0
139.748944146 382.0
139.801465277 372.0
139.853986408 391.0
139.906507539 388.0
139.959028669 352.0
140.011549800 361.0
