2.091060570 32.0
2.143581701 43.0
2.196102831 40.0
2.248623962 47.0
2.301145093 37.0
2.353666224 48.0
2.406187354 51.0
2.458708485 45.0
2.511229616 51.0
2.563750746 59.0
2.616271877 66.0
2.668793008 70.0
2.721314138 57.0
2.773835269 56.0
2.826356400 65.0
2.878877531 64.0
2.931398661 77.0
2.983919792 55.0
3.036440923 69.0
3.088962053 50.0
3.141483184 59.0
3.194004315 64.0
3.246525445 67.0
3.299046576 71.0
3.351567707 70.0
3.404088838 66.0
3.456609968 55.0
3.509131099 62.0
3.561652230 71.0
3.614173360 73.0
3.666694491 75.0
3.719215622 76.0
3.771736753 71.0
3.824257883 80.0
3.876779014 83.0
3.929300145 97.0
3.981821275 81.0
4.034342406 76.0
4.086863537 71.0
4.139384667 69.0
4.191905798 64.0
4.244426929 97.0
4.296948060 85.0
4.349469190 86.0
4.401990321 86.0
4.454511452 91.0
4.507032582 75.0
4.559553713 98.0
4.612074844 80.0
4.664595975 99.0
4.717117105 87.0
4.769638236 71.0
4.822159367 85.0
4.874680497 73.0
4.927201628 77.0
4.979722759 65.0
5.032243889 82.0
5.084765020 82.0
5.137286151 91.0
5.189807282 82.0
5.242328412 80.0
5.294849543 101.0
5.347370674 79.0
5.399891804 82.0
5.452412935 84.0
5.504934066 89.0
5.557455196 99.0
5.609976327 80.0
5.662497458 93.0
5.715018589 83.0
5.767539719 88.0
5.820060850 94.0
5.872581981 93.0
5.925103111 87.0
5.977624242 98.0
6.030145373 88.0
6.082666504 108.0
6.135187634 99.0
6.187708765 93.0
6.240229896 99.0
6.292751026 105.0
6.345272157 111.0
6.397793288 104.0
6.450314418 81.0
6.502835549 93.0
6.555356680 88.0
6.607877811 102.0
6.660398941 97.0
6.712920072 106.0
6.765441203 110.0
6.817962333 99.0
6.870483464 87.0
6.923004595 112.0
6.975525726 92.0
7.028046856 96.0
7.080567987 118.0
7.133089118 99.0
7.185610248 95.0
7.238131379 125.0
7.290652510 105.0
7.343173640 90.0
7.395694771 98.0
7.448215902 84.0
7.500737033 75.0
7.553258163 102.0
7.605779294 86.0
7.658300425 97.0
7.710821555 86.0
7.763342686 90.0
7.815863817 101.0
7.868384947 91.0
7.920906078 113.0
7.973427209 83.0
8.025948340 101.0
8.078469470 102.0
8.130990601 113.0
8.183511732 150.0
8.236032862 133.0
8.288553993 167.0
8.341075124 187.0
8.393596255 121.0
8.446117385 141.0
8.498638516 99.0
8.551159647 105.0
8.603680777 98.0
8.656201908 93.0
8.708723039 123.0
8.761244169 91.0
8.813765300 136.0
8.866286431 106.0
8.918807562 113.0
8.971328692 117.0
9.023849823 97.0
9.076370954 127.0
9.128892084 129.0
9.181413215 128.0
9.233934346 171.0
9.286455477 192.0
9.338976607 250.0
9.391497738 335.0
9.444018869 515.0
9.496539999 529.0
9.549061130 368.0
9.601582261 189.0
9.654103391 101.0
9.706624522 98.0
9.759145653 114.0
9.811666784 88.0
9.864187914 131.0
9.916709045 98.0
9.969230176 107.0
10.021751306 98.0
10.074272437 109.0
10.126793568 95.0
10.179314698 109.0
10.231835829 133.0
10.284356960 95.0
10.336878091 140.0
10.389399221 131.0
10.441920352 152.0
10.494441483 119.0
10.546962613 144.0
10.599483744 111.0
10.652004875 115.0
10.704526006 107.0
10.757047136 128.0
10.809568267 124.0
10.862089398 133.0
10.914610528 112.0
10.967131659 128.0
11.019652790 142.0
11.072173920 101.0
11.124695051 111.0
11.177216182 118.0
11.229737313 82.0
11.282258443 112.0
11.334779574 104.0
11.387300705 105.0
11.439821835 118.0
11.492342966 110.0
11.544864097 120.0
11.597385228 105.0
11.649906358 114.0
11.702427489 115.0
11.754948620 106.0
11.807469750 122.0
11.859990881 93.0
11.912512012 133.0
11.965033142 115.0
12.017554273 95.0
12.070075404 98.0
12.122596535 110.0
12.175117665 123.0
12.227638796 148.0
12.280159927 141.0
12.332681057 128.0
12.385202188 187.0
12.437723319 217.0
12.490244449 331.0
12.542765580 361.0
12.595286711 279.0
12.647807842 165.0
12.700328972 124.0
12.752850103 126.0
12.805371234 123.0
12.857892364 128.0
12.910413495 121.0
12.962934626 133.0
13.015455757 134.0
13.067976887 114.0
13.120498018 135.0
13.173019149 126.0
13.225540279 118.0
13.278061410 121.0
13.330582541 146.0
13.383103671 118.0
13.435624802 145.0
13.488145933 99.0
13.540667064 132.0
13.593188194 134.0
13.645709325 134.0
13.698230456 162.0
13.750751586 168.0
13.803272717 156.0
13.855793848 161.0
13.908314979 157.0
13.960836109 165.0
14.013357240 162.0
14.065878371 171.0
14.118399501 169.0
14.170920632 176.0
14.223441763 182.0
14.275962893 205.0
14.328484024 206.0
14.381005155 215.0
14.433526286 265.0
14.486047416 250.0
14.538568547 241.0
14.591089678 227.0
14.643610808 202.0
14.696131939 209.0
14.748653070 207.0
14.801174200 207.0
14.853695331 199.0
14.906216462 206.0
14.958737593 215.0
15.011258723 221.0
15.063779854 200.0
15.116300985 227.0
15.168822115 259.0
15.221343246 249.0
15.273864377 230.0
15.326385508 220.0
15.378906638 201.0
15.431427769 201.0
15.483948900 229.0
15.536470030 191.0
15.588991161 234.0
15.641512292 201.0
15.694033422 168.0
15.746554553 211.0
15.799075684 177.0
15.851596815 185.0
15.904117945 197.0
15.956639076 224.0
16.009160207 215.0
16.061681337 207.0
16.114202468 206.0
16.166723599 227.0
16.219244730 253.0
16.271765860 260.0
16.324286991 313.0
16.376808122 393.0
16.429329252 443.0
16.481850383 365.0
16.534371514 239.0
16.586892644 216.0
16.639413775 204.0
16.691934906 191.0
16.744456037 220.0
16.796977167 211.0
16.849498298 197.0
16.902019429 169.0
16.954540559 179.0
17.007061690 211.0
17.059582821 229.0
17.112103951 200.0
17.164625082 184.0
17.217146213 212.0
17.269667344 171.0
17.322188474 173.0
17.374709605 151.0
17.427230736 160.0
17.479751866 166.0
17.532272997 157.0
17.584794128 136.0
17.637315259 146.0
17.689836389 133.0
17.742357520 137.0
17.794878651 153.0
17.847399781 162.0
17.899920912 167.0
17.952442043 148.0
18.004963173 140.0
18.057484304 129.0
18.110005435 140.0
18.162526566 134.0
18.215047696 153.0
18.267568827 151.0
18.320089958 154.0
18.372611088 146.0
18.425132219 132.0
18.477653350 154.0
18.530174481 125.0
18.582695611 122.0
18.635216742 122.0
18.687737873 163.0
18.740259003 156.0
18.792780134 168.0
18.845301265 159.0
18.897822395 172.0
18.950343526 250.0
19.002864657 300.0
19.055385788 414.0
19.107906918 476.0
19.160428049 540.0
19.212949180 422.0
19.265470310 246.0
19.317991441 249.0
19.370512572 289.0
19.423033702 325.0
19.475554833 375.0
19.528075964 526.0
19.580597095 646.0
19.633118225 597.0
19.685639356 419.0
19.738160487 346.0
19.790681617 356.0
19.843202748 423.0
19.895723879 548.0
19.948245010 856.0
20.000766140 1085.0
20.053287271 875.0
20.105808402 467.0
20.158329532 311.0
20.210850663 230.0
20.263371794 223.0
20.315892924 202.0
20.368414055 213.0
20.420935186 240.0
20.473456317 229.0
20.525977447 243.0
20.578498578 255.0
20.631019709 244.0
20.683540839 278.0
20.736061970 261.0
20.788583101 335.0
20.841104232 365.0
20.893625362 387.0
20.946146493 318.0
20.998667624 259.0
21.051188754 270.0
21.103709885 327.0
21.156231016 379.0
21.208752146 458.0
21.261273277 482.0
21.313794408 347.0
21.366315539 284.0
21.418836669 312.0
21.471357800 261.0
21.523878931 251.0
21.576400061 249.0
21.628921192 280.0
21.681442323 288.0
21.733963453 286.0
21.786484584 340.0
21.839005715 321.0
21.891526846 324.0
21.944047976 339.0
21.996569107 352.0
22.049090238 372.0
22.101611368 376.0
22.154132499 364.0
22.206653630 420.0
22.259174761 395.0
22.311695891 412.0
22.364217022 406.0
22.416738153 437.0
22.469259283 478.0
22.521780414 435.0
22.574301545 455.0
22.626822675 459.0
22.679343806 441.0
22.731864937 498.0
22.784386068 541.0
22.836907198 517.0
22.889428329 436.0
22.941949460 458.0
22.994470590 422.0
23.046991721 426.0
23.099512852 386.0
23.152033983 355.0
23.204555113 301.0
23.257076244 311.0
23.309597375 310.0
23.362118505 282.0
23.414639636 241.0
23.467160767 264.0
23.519681897 259.0
23.572203028 255.0
23.624724159 260.0
23.677245290 285.0
23.729766420 423.0
23.782287551 436.0
23.834808682 340.0
23.887329812 214.0
23.939850943 179.0
23.992372074 181.0
24.044893204 165.0
24.097414335 150.0
24.149935466 145.0
24.202456597 140.0
24.254977727 148.0
24.307498858 160.0
24.360019989 139.0
24.412541119 147.0
24.465062250 132.0
24.517583381 128.0
24.570104512 145.0
24.622625642 131.0
24.675146773 122.0
24.727667904 115.0
24.780189034 112.0
24.832710165 122.0
24.885231296 117.0
24.937752426 114.0
24.990273557 121.0
25.042794688 126.0
25.095315819 136.0
25.147836949 170.0
25.200358080 182.0
25.252879211 198.0
25.305400341 160.0
25.357921472 137.0
25.410442603 129.0
25.462963733 117.0
25.515484864 171.0
25.568005995 187.0
25.620527126 210.0
25.673048256 247.0
25.725569387 205.0
25.778090518 226.0
25.830611648 219.0
25.883132779 273.0
25.935653910 190.0
25.988175041 195.0
26.040696171 173.0
26.093217302 133.0
26.145738433 144.0
26.198259563 133.0
26.250780694 108.0
26.303301825 85.0
26.355822955 113.0
26.408344086 91.0
26.460865217 117.0
26.513386348 113.0
26.565907478 112.0
26.618428609 104.0
26.670949740 112.0
26.723470870 114.0
26.775992001 109.0
26.828513132 94.0
26.881034263 95.0
26.933555393 92.0
26.986076524 113.0
27.038597655 95.0
27.091118785 82.0
27.143639916 86.0
27.196161047 104.0
27.248682177 95.0
27.301203308 113.0
27.353724439 106.0
27.406245570 121.0
27.458766700 168.0
27.511287831 160.0
27.563808962 153.0
27.616330092 102.0
27.668851223 86.0
27.721372354 95.0
27.773893484 85.0
27.826414615 80.0
27.878935746 101.0
27.931456877 103.0
27.983978007 112.0
28.036499138 138.0
28.089020269 154.0
28.141541399 169.0
28.194062530 160.0
28.246583661 153.0
28.299104792 122.0
28.351625922 136.0
28.404147053 151.0
28.456668184 147.0
28.509189314 191.0
28.561710445 232.0
28.614231576 356.0
28.666752706 423.0
28.719273837 271.0
28.771794968 167.0
28.824316099 145.0
28.876837229 134.0
28.929358360 129.0
28.981879491 150.0
29.034400621 148.0
29.086921752 139.0
29.139442883 119.0
29.191964014 103.0
29.244485144 110.0
29.297006275 103.0
29.349527406 94.0
29.402048536 89.0
29.454569667 77.0
29.507090798 105.0
29.559611928 97.0
29.612133059 68.0
29.664654190 99.0
29.717175321 81.0
29.769696451 86.0
29.822217582 82.0
29.874738713 75.0
29.927259843 78.0
29.979780974 71.0
30.032302105 85.0
30.084823235 78.0
30.137344366 79.0
30.189865497 80.0
30.242386628 92.0
30.294907758 85.0
30.347428889 77.0
30.399950020 105.0
30.452471150 91.0
30.504992281 72.0
30.557513412 84.0
30.610034543 89.0
30.662555673 99.0
30.715076804 95.0
30.767597935 118.0
30.820119065 114.0
30.872640196 116.0
30.925161327 107.0
30.977682457 137.0
31.030203588 142.0
31.082724719 161.0
31.135245850 155.0
31.187766980 131.0
31.240288111 129.0
31.292809242 146.0
31.345330372 170.0
31.397851503 145.0
31.450372634 191.0
31.502893765 204.0
31.555414895 233.0
31.607936026 241.0
31.660457157 276.0
31.712978287 313.0
31.765499418 361.0
31.818020549 355.0
31.870541679 350.0
31.923062810 279.0
31.975583941 255.0
32.028105072 272.0
32.080626202 246.0
32.133147333 282.0
32.185668464 265.0
32.238189594 251.0
32.290710725 223.0
32.343231856 176.0
32.395752986 166.0
32.448274117 135.0
32.500795248 135.0
32.553316379 146.0
32.605837509 150.0
32.658358640 142.0
32.710879771 144.0
32.763400901 166.0
32.815922032 199.0
32.868443163 218.0
32.920964294 247.0
32.973485424 234.0
33.026006555 216.0
33.078527686 212.0
33.131048816 189.0
33.183569947 192.0
33.236091078 179.0
33.288612208 109.0
33.341133339 113.0
33.393654470 114.0
33.446175601 126.0
33.498696731 127.0
33.551217862 124.0
33.603738993 79.0
33.656260123 86.0
33.708781254 73.0
33.761302385 108.0
33.813823516 109.0
33.866344646 128.0
33.918865777 131.0
33.971386908 149.0
34.023908038 170.0
34.076429169 150.0
34.128950300 128.0
34.181471430 152.0
34.233992561 123.0
34.286513692 116.0
34.339034823 117.0
34.391555953 119.0
34.444077084 143.0
34.496598215 148.0
34.549119345 142.0
34.601640476 163.0
34.654161607 142.0
34.706682737 113.0
34.759203868 100.0
34.811724999 114.0
34.864246130 113.0
34.916767260 165.0
34.969288391 159.0
35.021809522 117.0
35.074330652 104.0
35.126851783 90.0
35.179372914 99.0
35.231894045 117.0
35.284415175 99.0
35.336936306 121.0
35.389457437 119.0
35.441978567 105.0
35.494499698 97.0
35.547020829 96.0
35.599541959 142.0
35.652063090 117.0
35.704584221 129.0
35.757105352 91.0
35.809626482 101.0
35.862147613 96.0
35.914668744 95.0
35.967189874 115.0
36.019711005 112.0
36.072232136 119.0
36.124753267 107.0
36.177274397 140.0
36.229795528 148.0
36.282316659 192.0
36.334837789 132.0
36.387358920 107.0
36.439880051 109.0
36.492401181 112.0
36.544922312 70.0
36.597443443 87.0
36.649964574 84.0
36.702485704 83.0
36.755006835 92.0
36.807527966 101.0
36.860049096 120.0
36.912570227 148.0
36.965091358 145.0
37.017612488 111.0
37.070133619 101.0
37.122654750 90.0
37.175175881 78.0
37.227697011 82.0
37.280218142 76.0
37.332739273 90.0
37.385260403 80.0
37.437781534 126.0
37.490302665 131.0
37.542823796 165.0
37.595344926 183.0
37.647866057 122.0
37.700387188 106.0
37.752908318 132.0
37.805429449 142.0
37.857950580 119.0
37.910471710 95.0
37.962992841 87.0
38.015513972 69.0
38.068035103 93.0
38.120556233 109.0
38.173077364 141.0
38.225598495 112.0
38.278119625 141.0
38.330640756 109.0
38.383161887 116.0
38.435683018 107.0
38.488204148 104.0
38.540725279 111.0
38.593246410 138.0
38.645767540 116.0
38.698288671 101.0
38.750809802 91.0
38.803330932 91.0
38.855852063 112.0
38.908373194 98.0
38.960894325 97.0
39.013415455 86.0
39.065936586 89.0
39.118457717 87.0
39.170978847 96.0
39.223499978 77.0
39.276021109 101.0
39.328542239 102.0
39.381063370 121.0
39.433584501 111.0
39.486105632 114.0
39.538626762 110.0
39.591147893 93.0
39.643669024 108.0
39.696190154 129.0
39.748711285 129.0
39.801232416 158.0
39.853753547 136.0
39.906274677 147.0
39.958795808 137.0
40.011316939 109.0
40.063838069 96.0
40.116359200 102.0
40.168880331 74.0
40.221401461 92.0
40.273922592 69.0
40.326443723 77.0
40.378964854 72.0
40.431485984 106.0
40.484007115 89.0
40.536528246 83.0
40.589049376 85.0
40.641570507 115.0
40.694091638 101.0
40.746612769 95.0
40.799133899 83.0
40.851655030 93.0
40.904176161 87.0
40.956697291 80.0
41.009218422 81.0
41.061739553 66.0
41.114260683 73.0
41.166781814 74.0
41.219302945 77.0
41.271824076 65.0
41.324345206 72.0
41.376866337 64.0
41.429387468 77.0
41.481908598 81.0
41.534429729 72.0
41.586950860 80.0
41.639471990 63.0
41.691993121 77.0
41.744514252 79.0
41.797035383 83.0
41.849556513 87.0
41.902077644 91.0
41.954598775 73.0
42.007119905 86.0
42.059641036 92.0
42.112162167 76.0
42.164683298 88.0
42.217204428 67.0
42.269725559 71.0
42.322246690 91.0
42.374767820 91.0
42.427288951 100.0
42.479810082 94.0
42.532331212 72.0
42.584852343 70.0
42.637373474 91.0
42.689894605 76.0
42.742415735 79.0
42.794936866 78.0
42.847457997 63.0
42.899979127 84.0
42.952500258 70.0
43.005021389 80.0
43.057542520 83.0
43.110063650 77.0
43.162584781 74.0
43.215105912 88.0
43.267627042 76.0
43.320148173 68.0
43.372669304 59.0
43.425190434 44.0
43.477711565 62.0
43.530232696 67.0
43.582753827 61.0
43.635274957 69.0
43.687796088 73.0
43.740317219 80.0
43.792838349 73.0
43.845359480 74.0
43.897880611 79.0
43.950401741 59.0
44.002922872 74.0
44.055444003 73.0
44.107965134 82.0
44.160486264 68.0
44.213007395 81.0
44.265528526 71.0
44.318049656 78.0
44.370570787 87.0
44.423091918 63.0
44.475613049 59.0
44.528134179 61.0
44.580655310 56.0
44.633176441 48.0
44.685697571 63.0
44.738218702 66.0
44.790739833 68.0
44.843260963 70.0
44.895782094 57.0
44.948303225 70.0
45.000824356 51.0
45.053345486 68.0
45.105866617 65.0
45.158387748 78.0
45.210908878 85.0
45.263430009 72.0
45.315951140 82.0
45.368472271 69.0
45.420993401 85.0
45.473514532 64.0
45.526035663 69.0
45.578556793 74.0
45.631077924 67.0
45.683599055 87.0
45.736120185 79.0
45.788641316 82.0
45.841162447 84.0
45.893683578 63.0
45.946204708 63.0
45.998725839 63.0
46.051246970 49.0
46.103768100 67.0
46.156289231 62.0
46.208810362 71.0
46.261331492 72.0
46.313852623 75.0
46.366373754 84.0
46.418894885 86.0
46.471416015 82.0
46.523937146 97.0
46.576458277 109.0
46.628979407 114.0
46.681500538 130.0
46.734021669 131.0
46.786542800 136.0
46.839063930 116.0
46.891585061 100.0
46.944106192 91.0
46.996627322 80.0
47.049148453 80.0
47.101669584 87.0
47.154190714 69.0
47.206711845 89.0
47.259232976 94.0
47.311754107 76.0
47.364275237 78.0
47.416796368 66.0
47.469317499 54.0
47.521838629 61.0
47.574359760 71.0
47.626880891 66.0
47.679402022 74.0
47.731923152 79.0
47.784444283 64.0
47.836965414 85.0
47.889486544 99.0
47.942007675 91.0
47.994528806 99.0
48.047049936 89.0
48.099571067 89.0
48.152092198 78.0
48.204613329 89.0
48.257134459 82.0
48.309655590 55.0
48.362176721 52.0
48.414697851 69.0
48.467218982 70.0
48.519740113 65.0
48.572261243 67.0
48.624782374 83.0
48.677303505 75.0
48.729824636 101.0
48.782345766 82.0
48.834866897 75.0
48.887388028 95.0
48.939909158 65.0
48.992430289 62.0
49.044951420 70.0
49.097472551 57.0
49.149993681 79.0
49.202514812 84.0
49.255035943 76.0
49.307557073 101.0
49.360078204 106.0
49.412599335 143.0
49.465120465 138.0
49.517641596 138.0
49.570162727 116.0
49.622683858 119.0
49.675204988 99.0
49.727726119 89.0
49.780247250 76.0
49.832768380 69.0
49.885289511 75.0
49.937810642 72.0
49.990331772 66.0
50.042852903 64.0
50.095374034 70.0
50.147895165 66.0
50.200416295 78.0
50.252937426 81.0
50.305458557 93.0
50.357979687 91.0
50.410500818 96.0
50.463021949 80.0
50.515543080 81.0
50.568064210 89.0
50.620585341 96.0
50.673106472 88.0
50.725627602 85.0
50.778148733 79.0
50.830669864 72.0
50.883190994 68.0
50.935712125 59.0
50.988233256 52.0
51.040754387 53.0
51.093275517 62.0
51.145796648 66.0
51.198317779 62.0
51.250838909 71.0
51.303360040 69.0
51.355881171 95.0
51.408402302 78.0
51.460923432 86.0
51.513444563 68.0
51.565965694 58.0
51.618486824 52.0
51.671007955 57.0
51.723529086 59.0
51.776050216 62.0
51.828571347 69.0
51.881092478 56.0
51.933613609 73.0
51.986134739 71.0
52.038655870 92.0
52.091177001 83.0
52.143698131 74.0
52.196219262 58.0
52.248740393 55.0
52.301261523 74.0
52.353782654 64.0
52.406303785 54.0
52.458824916 62.0
52.511346046 60.0
52.563867177 54.0
52.616388308 40.0
52.668909438 43.0
52.721430569 54.0
52.773951700 59.0
52.826472831 51.0
52.878993961 55.0
52.931515092 56.0
52.984036223 67.0
53.036557353 55.0
53.089078484 89.0
53.141599615 95.0
53.194120745 75.0
53.246641876 74.0
53.299163007 76.0
53.351684138 54.0
53.404205268 49.0
53.456726399 47.0
53.509247530 60.0
53.561768660 48.0
53.614289791 45.0
53.666810922 49.0
53.719332053 35.0
53.771853183 44.0
53.824374314 48.0
53.876895445 34.0
53.929416575 48.0
53.981937706 43.0
54.034458837 30.0
54.086979967 54.0
54.139501098 44.0
54.192022229 32.0
54.244543360 50.0
54.297064490 41.0
54.349585621 42.0
54.402106752 52.0
54.454627882 42.0
54.507149013 48.0
54.559670144 38.0
54.612191274 52.0
54.664712405 63.0
54.717233536 51.0
54.769754667 43.0
54.822275797 72.0
54.874796928 49.0
54.927318059 58.0
54.979839189 45.0
55.032360320 51.0
55.084881451 39.0
55.137402582 41.0
55.189923712 39.0
55.242444843 43.0
55.294965974 52.0
55.347487104 53.0
55.400008235 50.0
55.452529366 46.0
55.505050496 43.0
55.557571627 39.0
55.610092758 54.0
55.662613889 45.0
55.715135019 48.0
55.767656150 57.0
55.820177281 47.0
55.872698411 49.0
55.925219542 51.0
55.977740673 50.0
56.030261804 44.0
56.082782934 47.0
56.135304065 46.0
56.187825196 57.0
56.240346326 52.0
56.292867457 38.0
56.345388588 46.0
56.397909718 52.0
56.450430849 33.0
56.502951980 30.0
56.555473111 37.0
56.607994241 28.0
56.660515372 34.0
56.713036503 38.0
56.765557633 47.0
56.818078764 53.0
56.870599895 50.0
56.923121025 47.0
56.975642156 48.0
57.028163287 37.0
57.080684418 39.0
57.133205548 42.0
57.185726679 35.0
57.238247810 29.0
57.290768940 45.0
57.343290071 30.0
57.395811202 44.0
57.448332333 32.0
57.500853463 45.0
57.553374594 44.0
57.605895725 32.0
57.658416855 31.0
57.710937986 30.0
57.763459117 25.0
57.815980247 31.0
57.868501378 48.0
57.921022509 45.0
57.973543640 35.0
58.026064770 36.0
58.078585901 46.0
58.131107032 47.0
58.183628162 41.0
58.236149293 46.0
58.288670424 41.0
58.341191555 51.0
58.393712685 38.0
58.446233816 37.0
58.498754947 44.0
58.551276077 40.0
58.603797208 33.0
58.656318339 49.0
58.708839469 39.0
58.761360600 39.0
58.813881731 37.0
58.866402862 35.0
58.918923992 33.0
58.971445123 31.0
59.023966254 33.0
59.076487384 29.0
59.129008515 25.0
59.181529646 44.0
59.234050776 28.0
59.286571907 43.0
59.339093038 37.0
59.391614169 40.0
59.444135299 47.0
59.496656430 39.0
59.549177561 24.0
59.601698691 45.0
59.654219822 35.0
59.706740953 48.0
59.759262084 30.0
59.811783214 41.0
59.864304345 42.0
59.916825476 42.0
59.969346606 38.0
60.021867737 50.0
60.074388868 40.0
60.126909998 49.0
60.179431129 44.0
60.231952260 36.0
60.284473391 44.0
60.336994521 40.0
60.389515652 41.0
60.442036783 49.0
60.494557913 69.0
60.547079044 72.0
60.599600175 59.0
60.652121306 49.0
60.704642436 41.0
60.757163567 54.0
60.809684698 36.0
60.862205828 36.0
60.914726959 43.0
60.967248090 42.0
61.019769220 34.0
61.072290351 38.0
61.124811482 45.0
61.177332613 39.0
61.229853743 38.0
61.282374874 30.0
61.334896005 47.0
61.387417135 47.0
61.439938266 32.0
61.492459397 46.0
61.544980527 51.0
61.597501658 71.0
61.650022789 50.0
61.702543920 47.0
61.755065050 41.0
61.807586181 52.0
61.860107312 42.0
61.912628442 36.0
61.965149573 39.0
62.017670704 41.0
62.070191835 33.0
62.122712965 41.0
62.175234096 43.0
62.227755227 32.0
62.280276357 46.0
62.332797488 32.0
62.385318619 43.0
62.437839749 29.0
62.490360880 47.0
62.542882011 35.0
62.595403142 36.0
62.647924272 45.0
62.700445403 49.0
62.752966534 33.0
62.805487664 39.0
62.858008795 47.0
62.910529926 43.0
62.963051057 49.0
63.015572187 44.0
63.068093318 54.0
63.120614449 37.0
63.173135579 41.0
63.225656710 35.0
63.278177841 53.0
63.330698971 28.0
63.383220102 44.0
63.435741233 44.0
63.488262364 48.0
63.540783494 55.0
63.593304625 35.0
63.645825756 34.0
63.698346886 44.0
63.750868017 51.0
63.803389148 32.0
63.855910278 44.0
63.908431409 52.0
63.960952540 54.0
64.013473671 66.0
64.065994801 48.0
64.118515932 61.0
64.171037063 47.0
64.223558193 49.0
64.276079324 45.0
64.328600455 41.0
64.381121586 38.0
64.433642716 43.0
64.486163847 43.0
64.538684978 28.0
64.591206108 21.0
64.643727239 31.0
64.696248370 22.0
64.748769500 37.0
64.801290631 36.0
64.853811762 35.0
64.906332893 35.0
64.958854023 45.0
65.011375154 37.0
65.063896285 41.0
65.116417415 57.0
65.168938546 37.0
65.221459677 41.0
65.273980808 31.0
65.326501938 46.0
65.379023069 28.0
65.431544200 43.0
65.484065330 31.0
65.536586461 28.0
65.589107592 49.0
65.641628722 27.0
65.694149853 37.0
65.746670984 41.0
65.799192115 34.0
65.851713245 39.0
65.904234376 41.0
65.956755507 32.0
66.009276637 36.0
66.061797768 30.0
66.114318899 27.0
66.166840029 29.0
66.219361160 24.0
66.271882291 31.0
66.324403422 32.0
66.376924552 51.0
66.429445683 44.0
66.481966814 36.0
66.534487944 35.0
66.587009075 32.0
66.639530206 33.0
66.692051337 32.0
66.744572467 33.0
66.797093598 45.0
66.849614729 39.0
66.902135859 50.0
66.954656990 37.0
67.007178121 28.0
67.059699251 35.0
67.112220382 28.0
67.164741513 34.0
67.217262644 39.0
67.269783774 29.0
67.322304905 32.0
67.374826036 35.0
67.427347166 36.0
67.479868297 30.0
67.532389428 34.0
67.584910559 29.0
67.637431689 35.0
67.689952820 25.0
67.742473951 31.0
67.794995081 26.0
67.847516212 40.0
67.900037343 29.0
67.952558473 37.0
68.005079604 30.0
68.057600735 23.0
68.110121866 30.0
68.162642996 29.0
68.215164127 34.0
68.267685258 31.0
68.320206388 28.0
68.372727519 31.0
68.425248650 27.0
68.477769780 36.0
68.530290911 24.0
68.582812042 32.0
68.635333173 27.0
68.687854303 35.0
68.740375434 29.0
68.792896565 37.0
68.845417695 23.0
68.897938826 25.0
68.950459957 23.0
69.002981088 29.0
69.055502218 21.0
69.108023349 28.0
69.160544480 23.0
69.213065610 24.0
69.265586741 23.0
69.318107872 20.0
69.370629002 29.0
69.423150133 26.0
69.475671264 26.0
69.528192395 23.0
69.580713525 22.0
69.633234656 24.0
69.685755787 28.0
69.738276917 31.0
69.790798048 26.0
69.843319179 25.0
69.895840310 26.0
69.948361440 29.0
70.000882571 29.0
70.053403702 23.0
70.105924832 35.0
70.158445963 27.0
70.210967094 25.0
70.263488224 25.0
70.316009355 26.0
70.368530486 28.0
70.421051617 36.0
70.473572747 37.0
70.526093878 23.0
70.578615009 33.0
70.631136139 22.0
70.683657270 43.0
70.736178401 20.0
70.788699531 21.0
70.841220662 22.0
70.893741793 24.0
70.946262924 28.0
70.998784054 31.0
71.051305185 28.0
71.103826316 37.0
71.156347446 30.0
71.208868577 24.0
71.261389708 21.0
71.313910839 33.0
71.366431969 39.0
71.418953100 34.0
71.471474231 35.0
71.523995361 33.0
71.576516492 32.0
71.629037623 39.0
71.681558753 33.0
71.734079884 23.0
71.786601015 31.0
71.839122146 37.0
71.891643276 50.0
71.944164407 24.0
71.996685538 34.0
72.049206668 30.0
72.101727799 32.0
72.154248930 32.0
72.206770060 29.0
72.259291191 33.0
72.311812322 39.0
72.364333453 38.0
72.416854583 30.0
72.469375714 35.0
72.521896845 34.0
72.574417975 36.0
72.626939106 36.0
72.679460237 31.0
72.731981368 50.0
72.784502498 40.0
72.837023629 43.0
72.889544760 35.0
72.942065890 37.0
72.994587021 35.0
73.047108152 31.0
73.099629282 40.0
73.152150413 25.0
73.204671544 36.0
73.257192675 31.0
73.309713805 30.0
73.362234936 32.0
73.414756067 30.0
73.467277197 30.0
73.519798328 24.0
73.572319459 33.0
73.624840590 41.0
73.677361720 32.0
73.729882851 41.0
73.782403982 44.0
73.834925112 39.0
73.887446243 33.0
73.939967374 40.0
73.992488504 50.0
74.045009635 35.0
74.097530766 40.0
74.150051897 40.0
74.202573027 40.0
74.255094158 24.0
74.307615289 17.0
74.360136419 32.0
74.412657550 36.0
74.465178681 26.0
74.517699811 30.0
74.570220942 30.0
74.622742073 37.0
74.675263204 24.0
74.727784334 33.0
74.780305465 22.0
74.832826596 32.0
74.885347726 49.0
74.937868857 33.0
74.990389988 22.0
75.042911119 38.0
75.095432249 26.0
75.147953380 27.0
75.200474511 28.0
75.252995641 32.0
75.305516772 43.0
75.358037903 39.0
75.410559033 30.0
75.463080164 41.0
75.515601295 47.0
75.568122426 39.0
75.620643556 44.0
75.673164687 38.0
75.725685818 43.0
75.778206948 34.0
75.830728079 35.0
75.883249210 30.0
75.935770341 35.0
75.988291471 40.0
76.040812602 45.0
76.093333733 32.0
76.145854863 50.0
76.198375994 40.0
76.250897125 38.0
76.303418255 34.0
76.355939386 41.0
76.408460517 44.0
76.460981648 35.0
76.513502778 37.0
76.566023909 52.0
76.618545040 33.0
76.671066170 48.0
76.723587301 26.0
76.776108432 41.0
76.828629562 38.0
76.881150693 30.0
76.933671824 43.0
76.986192955 44.0
77.038714085 45.0
77.091235216 42.0
77.143756347 41.0
77.196277477 50.0
77.248798608 53.0
77.301319739 37.0
77.353840870 37.0
77.406362000 42.0
77.458883131 35.0
77.511404262 30.0
77.563925392 26.0
77.616446523 35.0
77.668967654 39.0
77.721488784 29.0
77.774009915 36.0
77.826531046 37.0
77.879052177 28.0
77.931573307 18.0
77.984094438 30.0
78.036615569 26.0
78.089136699 37.0
78.141657830 30.0
78.194178961 51.0
78.246700092 28.0
78.299221222 36.0
78.351742353 34.0
78.404263484 27.0
78.456784614 30.0
78.509305745 33.0
78.561826876 39.0
78.614348006 33.0
78.666869137 35.0
78.719390268 25.0
78.771911399 30.0
78.824432529 31.0
78.876953660 21.0
78.929474791 21.0
78.981995921 23.0
79.034517052 26.0
79.087038183 29.0
79.139559313 34.0
79.192080444 22.0
79.244601575 22.0
79.297122706 25.0
79.349643836 22.0
79.402164967 26.0
79.454686098 23.0
79.507207228 29.0
79.559728359 27.0
79.612249490 27.0
79.664770621 26.0
79.717291751 21.0
79.769812882 15.0
79.822334013 17.0
79.874855143 29.0
79.927376274 23.0
79.979897405 30.0
80.032418535 23.0
80.084939666 36.0
80.137460797 29.0
80.189981928 40.0
80.242503058 36.0
80.295024189 28.0
80.347545320 23.0
80.400066450 24.0
80.452587581 25.0
80.505108712 30.0
80.557629843 25.0
80.610150973 25.0
80.662672104 25.0
80.715193235 28.0
80.767714365 34.0
80.820235496 30.0
80.872756627 19.0
80.925277757 30.0
80.977798888 30.0
81.030320019 35.0
81.082841150 24.0
81.135362280 42.0
81.187883411 25.0
81.240404542 28.0
81.292925672 35.0
81.345446803 22.0
81.397967934 27.0
81.450489064 29.0
81.503010195 43.0
81.555531326 38.0
81.608052457 31.0
81.660573587 46.0
81.713094718 46.0
81.765615849 27.0
81.818136979 27.0
81.870658110 24.0
81.923179241 29.0
81.975700372 23.0
82.028221502 10.0
82.080742633 23.0
82.133263764 21.0
82.185784894 23.0
82.238306025 39.0
82.290827156 26.0
82.343348286 30.0
82.395869417 28.0
82.448390548 30.0
82.500911679 24.0
82.553432809 28.0
82.605953940 30.0
82.658475071 33.0
82.710996201 38.0
82.763517332 27.0
82.816038463 35.0
82.868559594 21.0
82.921080724 31.0
82.973601855 26.0
83.026122986 22.0
83.078644116 31.0
83.131165247 26.0
83.183686378 25.0
83.236207508 33.0
83.288728639 30.0
83.341249770 37.0
83.393770901 45.0
83.446292031 44.0
83.498813162 26.0
83.551334293 34.0
83.603855423 25.0
83.656376554 29.0
83.708897685 38.0
83.761418815 31.0
83.813939946 27.0
83.866461077 39.0
83.918982208 32.0
83.971503338 28.0
84.024024469 34.0
84.076545600 32.0
84.129066730 27.0
84.181587861 38.0
84.234108992 28.0
84.286630123 32.0
84.339151253 43.0
84.391672384 31.0
84.444193515 34.0
84.496714645 37.0
84.549235776 30.0
84.601756907 21.0
84.654278037 19.0
84.706799168 28.0
84.759320299 29.0
84.811841430 22.0
84.864362560 34.0
84.916883691 25.0
84.969404822 23.0
85.021925952 32.0
85.074447083 32.0
85.126968214 17.0
85.179489345 26.0
85.232010475 23.0
85.284531606 27.0
85.337052737 17.0
85.389573867 29.0
85.442094998 18.0
85.494616129 27.0
85.547137259 33.0
85.599658390 31.0
85.652179521 24.0
85.704700652 26.0
85.757221782 26.0
85.809742913 24.0
85.862264044 27.0
85.914785174 19.0
85.967306305 21.0
86.019827436 29.0
86.072348566 27.0
86.124869697 23.0
86.177390828 20.0
86.229911959 27.0
86.282433089 27.0
86.334954220 24.0
86.387475351 11.0
86.439996481 26.0
86.492517612 27.0
86.545038743 25.0
86.597559874 27.0
86.650081004 25.0
86.702602135 26.0
86.755123266 29.0
86.807644396 26.0
86.860165527 28.0
86.912686658 21.0
86.965207788 31.0
87.017728919 34.0
87.070250050 24.0
87.122771181 32.0
87.175292311 36.0
87.227813442 30.0
87.280334573 37.0
87.332855703 40.0
87.385376834 43.0
87.437897965 37.0
87.490419096 45.0
87.542940226 36.0
87.595461357 42.0
87.647982488 34.0
87.700503618 37.0
87.753024749 34.0
87.805545880 29.0
87.858067010 32.0
87.910588141 28.0
87.963109272 28.0
88.015630403 29.0
88.068151533 32.0
88.120672664 27.0
88.173193795 33.0
88.225714925 25.0
88.278236056 34.0
88.330757187 31.0
88.383278317 34.0
88.435799448 28.0
88.488320579 32.0
88.540841710 37.0
88.593362840 39.0
88.645883971 41.0
88.698405102 27.0
88.750926232 27.0
88.803447363 24.0
88.855968494 27.0
88.908489625 27.0
88.961010755 33.0
89.013531886 28.0
89.066053017 23.0
89.118574147 29.0
89.171095278 37.0
89.223616409 33.0
89.276137539 18.0
89.328658670 24.0
89.381179801 21.0
89.433700932 15.0
89.486222062 21.0
89.538743193 31.0
89.591264324 20.0
89.643785454 21.0
89.696306585 22.0
89.748827716 24.0
89.801348847 24.0
89.853869977 30.0
89.906391108 19.0
89.958912239 20.0
90.011433369 28.0
90.063954500 24.0
90.116475631 28.0
90.168996761 27.0
90.221517892 33.0
90.274039023 21.0
90.326560154 20.0
90.379081284 24.0
90.431602415 28.0
90.484123546 21.0
90.536644676 21.0
90.589165807 16.0
90.641686938 20.0
90.694208068 21.0
90.746729199 22.0
90.799250330 16.0
90.851771461 17.0
90.904292591 20.0
90.956813722 21.0
91.009334853 31.0
91.061855983 22.0
91.114377114 25.0
91.166898245 21.0
91.219419376 23.0
91.271940506 28.0
91.324461637 28.0
91.376982768 26.0
91.429503898 17.0
91.482025029 25.0
91.534546160 16.0
91.587067290 21.0
91.639588421 16.0
91.692109552 16.0
91.744630683 24.0
91.797151813 22.0
91.849672944 24.0
91.902194075 13.0
91.954715205 19.0
92.007236336 21.0
92.059757467 26.0
92.112278598 25.0
92.164799728 19.0
92.217320859 20.0
92.269841990 13.0
92.322363120 22.0
92.374884251 10.0
92.427405382 18.0
92.479926512 21.0
92.532447643 20.0
92.584968774 21.0
92.637489905 23.0
92.690011035 26.0
92.742532166 19.0
92.795053297 27.0
92.847574427 31.0
92.900095558 20.0
92.952616689 21.0
93.005137819 18.0
93.057658950 17.0
93.110180081 18.0
93.162701212 17.0
93.215222342 20.0
93.267743473 29.0
93.320264604 22.0
93.372785734 17.0
93.425306865 22.0
93.477827996 27.0
93.530349127 21.0
93.582870257 22.0
93.635391388 17.0
93.687912519 11.0
93.740433649 25.0
93.792954780 31.0
93.845475911 13.0
93.897997041 21.0
93.950518172 14.0
94.003039303 26.0
94.055560434 26.0
94.108081564 10.0
94.160602695 27.0
94.213123826 18.0
94.265644956 26.0
94.318166087 19.0
94.370687218 16.0
94.423208348 27.0
94.475729479 26.0
94.528250610 19.0
94.580771741 22.0
94.633292871 19.0
94.685814002 27.0
94.738335133 24.0
94.790856263 24.0
94.843377394 21.0
94.895898525 25.0
94.948419656 26.0
95.000940786 22.0
95.053461917 20.0
95.105983048 22.0
95.158504178 15.0
95.211025309 19.0
95.263546440 24.0
95.316067570 26.0
95.368588701 25.0
95.421109832 19.0
95.473630963 15.0
95.526152093 22.0
95.578673224 18.0
95.631194355 20.0
95.683715485 15.0
95.736236616 20.0
95.788757747 23.0
95.841278878 21.0
95.893800008 31.0
95.946321139 27.0
95.998842270 21.0
96.051363400 31.0
96.103884531 30.0
96.156405662 25.0
96.208926792 22.0
96.261447923 27.0
96.313969054 34.0
96.366490185 21.0
96.419011315 27.0
96.471532446 20.0
96.524053577 30.0
96.576574707 31.0
96.629095838 41.0
96.681616969 18.0
96.734138099 22.0
96.786659230 19.0
96.839180361 27.0
96.891701492 31.0
96.944222622 29.0
96.996743753 32.0
97.049264884 30.0
97.101786014 19.0
97.154307145 23.0
97.206828276 25.0
97.259349407 27.0
97.311870537 32.0
97.364391668 20.0
97.416912799 25.0
97.469433929 15.0
97.521955060 26.0
97.574476191 19.0
97.626997321 18.0
97.679518452 35.0
97.732039583 28.0
97.784560714 16.0
97.837081844 17.0
97.889602975 21.0
97.942124106 23.0
97.994645236 20.0
98.047166367 39.0
98.099687498 35.0
98.152208629 25.0
98.204729759 19.0
98.257250890 19.0
98.309772021 17.0
98.362293151 18.0
98.414814282 24.0
98.467335413 20.0
98.519856543 28.0
98.572377674 17.0
98.624898805 16.0
98.677419936 24.0
98.729941066 25.0
98.782462197 22.0
98.834983328 23.0
98.887504458 24.0
98.940025589 24.0
98.992546720 28.0
99.045067850 33.0
99.097588981 28.0
99.150110112 22.0
99.202631243 32.0
99.255152373 19.0
99.307673504 21.0
99.360194635 25.0
99.412715765 31.0
99.465236896 14.0
99.517758027 31.0
99.570279158 28.0
99.622800288 26.0
99.675321419 25.0
99.727842550 24.0
99.780363680 26.0
99.832884811 25.0
99.885405942 34.0
99.937927072 26.0
99.990448203 31.0
100.042969334 20.0
100.095490465 20.0
100.148011595 21.0
100.200532726 20.0
100.253053857 25.0
100.305574987 19.0
100.358096118 26.0
100.410617249 30.0
100.463138380 30.0
100.515659510 28.0
100.568180641 20.0
100.620701772 24.0
100.673222902 18.0
100.725744033 21.0
100.778265164 29.0
100.830786294 31.0
100.883307425 28.0
100.935828556 24.0
100.988349687 15.0
101.040870817 21.0
101.093391948 23.0
101.145913079 29.0
101.198434209 23.0
101.250955340 19.0
101.303476471 29.0
101.355997601 16.0
101.408518732 17.0
101.461039863 27.0
101.513560994 23.0
101.566082124 20.0
101.618603255 20.0
101.671124386 19.0
101.723645516 21.0
101.776166647 23.0
101.828687778 13.0
101.881208909 14.0
101.933730039 16.0
101.986251170 17.0
102.038772301 21.0
102.091293431 18.0
102.143814562 19.0
102.196335693 20.0
102.248856823 24.0
102.301377954 28.0
102.353899085 20.0
102.406420216 27.0
102.458941346 28.0
102.511462477 21.0
102.563983608 12.0
102.616504738 19.0
102.669025869 22.0
102.721547000 26.0
102.774068131 17.0
102.826589261 18.0
102.879110392 26.0
102.931631523 25.0
102.984152653 23.0
103.036673784 22.0
103.089194915 19.0
103.141716045 26.0
103.194237176 21.0
103.246758307 26.0
103.299279438 27.0
103.351800568 18.0
103.404321699 23.0
103.456842830 17.0
103.509363960 34.0
103.561885091 19.0
103.614406222 14.0
103.666927352 20.0
103.719448483 12.0
103.771969614 22.0
103.824490745 20.0
103.877011875 16.0
103.929533006 33.0
103.982054137 23.0
104.034575267 22.0
104.087096398 21.0
104.139617529 21.0
104.192138660 28.0
104.244659790 24.0
104.297180921 20.0
104.349702052 23.0
104.402223182 24.0
104.454744313 30.0
104.507265444 17.0
104.559786574 19.0
104.612307705 23.0
104.664828836 16.0
104.717349967 14.0
104.769871097 23.0
104.822392228 28.0
104.874913359 14.0
104.927434489 20.0
104.979955620 24.0
105.032476751 19.0
105.084997882 33.0
105.137519012 14.0
105.190040143 23.0
105.242561274 23.0
105.295082404 15.0
105.347603535 19.0
105.400124666 17.0
105.452645796 19.0
105.505166927 7.0
105.557688058 13.0
105.610209189 24.0
105.662730319 21.0
105.715251450 14.0
105.767772581 12.0
105.820293711 16.0
105.872814842 20.0
105.925335973 17.0
105.977857103 25.0
106.030378234 20.0
106.082899365 17.0
106.135420496 15.0
106.187941626 26.0
106.240462757 19.0
106.292983888 16.0
106.345505018 20.0
106.398026149 17.0
106.450547280 16.0
106.503068411 13.0
106.555589541 20.0
106.608110672 11.0
106.660631803 18.0
106.713152933 14.0
106.765674064 28.0
106.818195195 20.0
106.870716325 20.0
106.923237456 24.0
106.975758587 27.0
107.028279718 25.0
107.080800848 18.0
107.133321979 12.0
107.185843110 14.0
107.238364240 13.0
107.290885371 17.0
107.343406502 18.0
107.395927633 21.0
107.448448763 24.0
107.500969894 17.0
107.553491025 17.0
107.606012155 16.0
107.658533286 17.0
107.711054417 8.0
107.763575547 10.0
107.816096678 15.0
107.868617809 20.0
107.921138940 23.0
107.973660070 18.0
108.026181201 20.0
108.078702332 10.0
108.131223462 15.0
108.183744593 22.0
108.236265724 14.0
108.288786854 20.0
108.341307985 24.0
108.393829116 16.0
108.446350247 22.0
108.498871377 24.0
108.551392508 17.0
108.603913639 22.0
108.656434769 24.0
108.708955900 8.0
108.761477031 29.0
108.813998162 26.0
108.866519292 17.0
108.919040423 23.0
108.971561554 18.0
109.024082684 11.0
109.076603815 24.0
109.129124946 29.0
109.181646076 18.0
109.234167207 21.0
109.286688338 17.0
109.339209469 16.0
109.391730599 25.0
109.444251730 19.0
109.496772861 29.0
109.549293991 17.0
109.601815122 12.0
109.654336253 13.0
109.706857384 18.0
109.759378514 14.0
109.811899645 14.0
109.864420776 20.0
109.916941906 18.0
109.969463037 18.0
110.021984168 18.0
110.074505298 17.0
110.127026429 23.0
110.179547560 24.0
110.232068691 18.0
110.284589821 17.0
110.337110952 18.0
110.389632083 25.0
110.442153213 31.0
110.494674344 22.0
110.547195475 29.0
110.599716605 25.0
110.652237736 18.0
110.704758867 15.0
110.757279998 18.0
110.809801128 14.0
110.862322259 23.0
110.914843390 29.0
110.967364520 20.0
111.019885651 17.0
111.072406782 34.0
111.124927913 10.0
111.177449043 12.0
111.229970174 14.0
111.282491305 15.0
111.335012435 16.0
111.387533566 19.0
111.440054697 18.0
111.492575827 21.0
111.545096958 14.0
111.597618089 16.0
111.650139220 11.0
111.702660350 10.0
111.755181481 20.0
111.807702612 16.0
111.860223742 21.0
111.912744873 15.0
111.965266004 11.0
112.017787135 20.0
112.070308265 23.0
112.122829396 14.0
112.175350527 14.0
112.227871657 13.0
112.280392788 22.0
112.332913919 17.0
112.385435049 26.0
112.437956180 21.0
112.490477311 19.0
112.542998442 17.0
112.595519572 21.0
112.648040703 15.0
112.700561834 21.0
112.753082964 21.0
112.805604095 18.0
112.858125226 22.0
112.910646356 20.0
112.963167487 17.0
113.015688618 19.0
113.068209749 29.0
113.120730879 15.0
113.173252010 24.0
113.225773141 12.0
113.278294271 20.0
113.330815402 23.0
113.383336533 22.0
113.435857664 21.0
113.488378794 16.0
113.540899925 19.0
113.593421056 18.0
113.645942186 18.0
113.698463317 17.0
113.750984448 22.0
113.803505578 13.0
113.856026709 18.0
113.908547840 17.0
113.961068971 14.0
114.013590101 17.0
114.066111232 14.0
114.118632363 15.0
114.171153493 19.0
114.223674624 13.0
114.276195755 20.0
114.328716886 10.0
114.381238016 17.0
114.433759147 16.0
114.486280278 16.0
114.538801408 17.0
114.591322539 23.0
114.643843670 16.0
114.696364800 20.0
114.748885931 22.0
114.801407062 26.0
114.853928193 13.0
114.906449323 15.0
114.958970454 7.0
115.011491585 16.0
115.064012715 20.0
115.116533846 17.0
115.169054977 12.0
115.221576107 17.0
115.274097238 25.0
115.326618369 15.0
115.379139500 16.0
115.431660630 16.0
115.484181761 21.0
115.536702892 21.0
115.589224022 15.0
115.641745153 29.0
115.694266284 18.0
115.746787415 16.0
115.799308545 22.0
115.851829676 11.0
115.904350807 17.0
115.956871937 17.0
116.009393068 22.0
116.061914199 18.0
116.114435329 13.0
116.166956460 21.0
116.219477591 11.0
116.271998722 15.0
116.324519852 19.0
116.377040983 14.0
116.429562114 11.0
116.482083244 14.0
116.534604375 22.0
116.587125506 12.0
116.639646637 21.0
116.692167767 15.0
116.744688898 25.0
116.797210029 18.0
116.849731159 16.0
116.902252290 18.0
116.954773421 18.0
117.007294551 18.0
117.059815682 24.0
117.112336813 16.0
117.164857944 15.0
117.217379074 14.0
117.269900205 21.0
117.322421336 25.0
117.374942466 23.0
117.427463597 22.0
117.479984728 17.0
117.532505858 13.0
117.585026989 15.0
117.637548120 20.0
117.690069251 14.0
117.742590381 14.0
117.795111512 22.0
117.847632643 18.0
117.900153773 13.0
117.952674904 13.0
118.005196035 13.0
118.057717166 20.0
118.110238296 13.0
118.162759427 13.0
118.215280558 16.0
118.267801688 15.0
118.320322819 23.0
118.372843950 18.0
118.425365080 14.0
118.477886211 17.0
118.530407342 17.0
118.582928473 17.0
118.635449603 26.0
118.687970734 13.0
118.740491865 13.0
118.793012995 9.0
118.845534126 17.0
118.898055257 13.0
118.950576387 14.0
119.003097518 10.0
119.055618649 19.0
119.108139780 16.0
119.160660910 19.0
119.213182041 16.0
119.265703172 15.0
119.318224302 21.0
119.370745433 19.0
119.423266564 17.0
119.475787695 12.0
119.528308825 24.0
119.580829956 11.0
119.633351087 18.0
119.685872217 17.0
119.738393348 23.0
119.790914479 16.0
119.843435609 12.0
119.895956740 18.0
119.948477871 21.0
120.000999002 15.0
120.053520132 14.0
120.106041263 21.0
120.158562394 23.0
120.211083524 19.0
120.263604655 7.0
120.316125786 15.0
120.368646917 8.0
120.421168047 15.0
120.473689178 15.0
120.526210309 25.0
120.578731439 15.0
120.631252570 20.0
120.683773701 21.0
120.736294831 8.0
120.788815962 16.0
120.841337093 19.0
120.893858224 16.0
120.946379354 16.0
120.998900485 8.0
121.051421616 13.0
121.103942746 19.0
121.156463877 8.0
121.208985008 13.0
121.261506138 19.0
121.314027269 16.0
121.366548400 17.0
121.419069531 12.0
121.471590661 16.0
121.524111792 15.0
121.576632923 28.0
121.629154053 29.0
121.681675184 19.0
121.734196315 13.0
121.786717446 19.0
121.839238576 19.0
121.891759707 27.0
121.944280838 17.0
121.996801968 32.0
122.049323099 16.0
122.101844230 23.0
122.154365360 22.0
122.206886491 14.0
122.259407622 19.0
122.311928753 18.0
122.364449883 20.0
122.416971014 17.0
122.469492145 27.0
122.522013275 23.0
122.574534406 22.0
122.627055537 23.0
122.679576668 12.0
122.732097798 18.0
122.784618929 24.0
122.837140060 20.0
122.889661190 20.0
122.942182321 23.0
122.994703452 18.0
123.047224582 21.0
123.099745713 11.0
123.152266844 14.0
123.204787975 19.0
123.257309105 29.0
123.309830236 23.0
123.362351367 24.0
123.414872497 21.0
123.467393628 18.0
123.519914759 13.0
123.572435889 14.0
123.624957020 19.0
123.677478151 20.0
123.729999282 16.0
123.782520412 20.0
123.835041543 21.0
123.887562674 26.0
123.940083804 22.0
123.992604935 22.0
124.045126066 19.0
124.097647197 17.0
124.150168327 16.0
124.202689458 24.0
124.255210589 14.0
124.307731719 13.0
124.360252850 14.0
124.412773981 16.0
124.465295111 13.0
124.517816242 22.0
124.570337373 23.0
124.622858504 20.0
124.675379634 10.0
124.727900765 21.0
124.780421896 15.0
124.832943026 19.0
124.885464157 14.0
124.937985288 26.0
124.990506419 10.0
125.043027549 21.0
125.095548680 15.0
125.148069811 16.0
125.200590941 15.0
125.253112072 27.0
125.305633203 19.0
125.358154333 12.0
125.410675464 17.0
125.463196595 15.0
125.515717726 16.0
125.568238856 21.0
125.620759987 10.0
125.673281118 17.0
125.725802248 13.0
125.778323379 16.0
125.830844510 23.0
125.883365640 18.0
125.935886771 23.0
125.988407902 26.0
126.040929033 15.0
126.093450163 14.0
126.145971294 25.0
126.198492425 19.0
126.251013555 22.0
126.303534686 15.0
126.356055817 23.0
126.408576948 17.0
126.461098078 15.0
126.513619209 12.0
126.566140340 20.0
126.618661470 22.0
126.671182601 16.0
126.723703732 18.0
126.776224862 13.0
126.828745993 18.0
126.881267124 10.0
126.933788255 17.0
126.986309385 22.0
127.038830516 21.0
127.091351647 17.0
127.143872777 23.0
127.196393908 24.0
127.248915039 15.0
127.301436170 18.0
127.353957300 16.0
127.406478431 15.0
127.458999562 16.0
127.511520692 25.0
127.564041823 15.0
127.616562954 15.0
127.669084084 17.0
127.721605215 25.0
127.774126346 22.0
127.826647477 16.0
127.879168607 16.0
127.931689738 19.0
127.984210869 8.0
128.036731999 28.0
128.089253130 29.0
128.141774261 14.0
128.194295391 23.0
128.246816522 12.0
128.299337653 21.0
128.351858784 22.0
128.404379914 18.0
128.456901045 14.0
128.509422176 17.0
128.561943306 24.0
128.614464437 20.0
128.666985568 26.0
128.719506699 17.0
128.772027829 17.0
128.824548960 23.0
128.877070091 20.0
128.929591221 15.0
128.982112352 9.0
129.034633483 23.0
129.087154613 29.0
129.139675744 13.0
129.192196875 10.0
129.244718006 13.0
129.297239136 25.0
129.349760267 17.0
129.402281398 18.0
129.454802528 20.0
129.507323659 26.0
129.559844790 16.0
129.612365921 22.0
129.664887051 19.0
129.717408182 14.0
129.769929313 15.0
129.822450443 14.0
129.874971574 21.0
129.927492705 22.0
129.980013835 25.0
130.032534966 28.0
130.085056097 12.0
130.137577228 22.0
130.190098358 16.0
130.242619489 22.0
130.295140620 13.0
130.347661750 14.0
130.400182881 11.0
130.452704012 20.0
130.505225142 19.0
130.557746273 21.0
130.610267404 16.0
130.662788535 23.0
130.715309665 15.0
130.767830796 20.0
130.820351927 17.0
130.872873057 23.0
130.925394188 25.0
130.977915319 20.0
131.030436450 15.0
131.082957580 23.0
131.135478711 13.0
131.187999842 18.0
131.240520972 17.0
131.293042103 21.0
131.345563234 20.0
131.398084364 17.0
131.450605495 17.0
131.503126626 18.0
131.555647757 15.0
131.608168887 26.0
131.660690018 23.0
131.713211149 12.0
131.765732279 22.0
131.818253410 14.0
131.870774541 14.0
131.923295672 15.0
131.975816802 24.0
132.028337933 23.0
132.080859064 18.0
132.133380194 13.0
132.185901325 20.0
132.238422456 19.0
132.290943586 13.0
132.343464717 19.0
132.395985848 22.0
132.448506979 21.0
132.501028109 24.0
132.553549240 20.0
132.606070371 28.0
132.658591501 22.0
132.711112632 20.0
132.763633763 14.0
132.816154893 13.0
132.868676024 18.0
132.921197155 19.0
132.973718286 25.0
133.026239416 23.0
133.078760547 21.0
133.131281678 12.0
133.183802808 14.0
133.236323939 11.0
133.288845070 29.0
133.341366201 21.0
133.393887331 17.0
133.446408462 15.0
133.498929593 16.0
133.551450723 17.0
133.603971854 21.0
133.656492985 25.0
133.709014115 24.0
133.761535246 12.0
133.814056377 11.0
133.866577508 13.0
133.919098638 11.0
133.971619769 20.0
134.024140900 15.0
134.076662030 27.0
134.129183161 23.0
134.181704292 17.0
134.234225423 17.0
134.286746553 19.0
134.339267684 19.0
134.391788815 22.0
134.444309945 20.0
134.496831076 19.0
134.549352207 25.0
134.601873337 19.0
134.654394468 19.0
134.706915599 19.0
134.759436730 25.0
134.811957860 16.0
134.864478991 17.0
134.917000122 13.0
134.969521252 15.0
135.022042383 19.0
135.074563514 12.0
135.127084644 18.0
135.179605775 9.0
135.232126906 14.0
135.284648037 12.0
135.337169167 12.0
135.389690298 19.0
135.442211429 21.0
135.494732559 14.0
135.547253690 25.0
135.599774821 24.0
135.652295952 18.0
135.704817082 16.0
135.757338213 20.0
135.809859344 15.0
135.862380474 21.0
135.914901605 22.0
135.967422736 26.0
136.019943866 22.0
136.072464997 19.0
136.124986128 20.0
136.177507259 22.0
136.230028389 18.0
136.282549520 25.0
136.335070651 14.0
136.387591781 19.0
136.440112912 24.0
136.492634043 18.0
136.545155174 19.0
136.597676304 26.0
136.650197435 21.0
136.702718566 24.0
136.755239696 18.0
136.807760827 15.0
136.860281958 22.0
136.912803088 19.0
136.965324219 22.0
137.017845350 27.0
137.070366481 21.0
137.122887611 23.0
137.175408742 22.0
137.227929873 12.0
137.280451003 25.0
137.332972134 17.0
137.385493265 11.0
137.438014395 25.0
137.490535526 18.0
137.543056657 20.0
137.595577788 24.0
137.648098918 18.0
137.700620049 13.0
137.753141180 19.0
137.805662310 16.0
137.858183441 28.0
137.910704572 14.0
137.963225703 23.0
138.015746833 18.0
138.068267964 17.0
138.120789095 26.0
138.173310225 18.0
138.225831356 15.0
138.278352487 14.0
138.330873617 24.0
138.383394748 14.0
138.435915879 27.0
138.488437010 29.0
138.540958140 21.0
138.593479271 12.0
138.646000402 18.0
138.698521532 25.0
138.751042663 12.0
138.803563794 19.0
138.856084925 17.0
138.908606055 17.0
138.961127186 24.0
139.013648317 18.0
139.066169447 23.0
139.118690578 14.0
139.171211709 23.0
139.223732839 13.0
139.276253970 26.0
139.328775101 22.0
139.381296232 29.0
139.433817362 23.0
139.486338493 20.0
139.538859624 14.0
139.591380754 16.0
139.643901885 24.0
139.696423016 24.0
139.748944146 22.0
139.801465277 19.0
139.853986408 15.0
139.906507539 20.0
139.959028669 22.0
140.011549800 17.0
