2.091060570 56.0
2.143581701 49.0
2.196102831 31.0
2.248623962 44.0
2.301145093 49.0
2.353666224 37.0
2.406187354 43.0
2.458708485 50.0
2.511229616 52.0
2.563750746 53.0
2.616271877 50.0
2.668793008 41.0
2.721314138 52.0
2.773835269 61.0
2.826356400 63.0
2.878877531 60.0
2.931398661 75.0
2.983919792 46.0
3.036440923 55.0
3.088962053 58.0
3.141483184 62.0
3.194004315 53.0
3.246525445 54.0
3.299046576 69.0
3.351567707 65.0
3.404088838 65.0
3.456609968 69.0
3.509131099 64.0
3.561652230 54.0
3.614173360 66.0
3.666694491 62.0
3.719215622 65.0
3.771736753 52.0
3.824257883 58.0
3.876779014 67.0
3.929300145 67.0
3.981821275 66.0
4.034342406 75.0
4.086863537 67.0
4.139384667 65.0
4.191905798 56.0
4.244426929 56.0
4.296948060 70.0
4.349469190 60.0
4.401990321 78.0
4.454511452 63.0
4.507032582 57.0
4.559553713 69.0
4.612074844 59.0
4.664595975 52.0
4.717117105 54.0
4.769638236 77.0
4.822159367 87.0
4.874680497 62.0
4.927201628 69.0
4.979722759 66.0
5.032243889 74.0
5.084765020 67.0
5.137286151 68.0
5.189807282 76.0
5.242328412 70.0
5.294849543 91.0
5.347370674 86.0
5.399891804 94.0
5.452412935 66.0
5.504934066 62.0
5.557455196 82.0
5.609976327 67.0
5.662497458 70.0
5.715018589 73.0
5.767539719 88.0
5.820060850 52.0
5.872581981 69.0
5.925103111 61.0
5.977624242 67.0
6.030145373 68.0
6.082666504 78.0
6.135187634 64.0
6.187708765 62.0
6.240229896 63.0
6.292751026 72.0
6.345272157 90.0
6.397793288 65.0
6.450314418 54.0
6.502835549 67.0
6.555356680 75.0
6.607877811 59.0
6.660398941 68.0
6.712920072 67.0
6.765441203 71.0
6.817962333 72.0
6.870483464 66.0
6.923004595 67.0
6.975525726 68.0
7.028046856 88.0
7.080567987 85.0
7.133089118 84.0
7.185610248 59.0
7.238131379 74.0
7.290652510 65.0
7.343173640 72.0
7.395694771 85.0
7.448215902 62.0
7.500737033 75.0
7.553258163 71.0
7.605779294 71.0
7.658300425 63.0
7.710821555 67.0
7.763342686 90.0
7.815863817 65.0
7.868384947 72.0
7.920906078 68.0
7.973427209 72.0
8.025948340 57.0
8.078469470 74.0
8.130990601 74.0
8.183511732 64.0
8.236032862 66.0
8.288553993 80.0
8.341075124 63.0
8.393596255 76.0
8.446117385 63.0
8.498638516 75.0
8.551159647 58.0
8.603680777 54.0
8.656201908 87.0
8.708723039 63.0
8.761244169 68.0
8.813765300 65.0
8.866286431 70.0
8.918807562 69.0
8.971328692 66.0
9.023849823 64.0
9.076370954 57.0
9.128892084 68.0
9.181413215 77.0
9.233934346 69.0
9.286455477 75.0
9.338976607 62.0
9.391497738 65.0
9.444018869 72.0
9.496539999 66.0
9.549061130 77.0
9.601582261 65.0
9.654103391 66.0
9.706624522 68.0
9.759145653 64.0
9.811666784 75.0
9.864187914 64.0
9.916709045 66.0
9.969230176 63.0
10.021751306 81.0
10.074272437 66.0
10.126793568 58.0
10.179314698 57.0
10.231835829 62.0
10.284356960 67.0
10.336878091 58.0
10.389399221 75.0
10.441920352 67.0
10.494441483 60.0
10.546962613 57.0
10.599483744 58.0
10.652004875 54.0
10.704526006 72.0
10.757047136 62.0
10.809568267 68.0
10.862089398 64.0
10.914610528 78.0
10.967131659 82.0
11.019652790 51.0
11.072173920 77.0
11.124695051 61.0
11.177216182 70.0
11.229737313 71.0
11.282258443 69.0
11.334779574 55.0
11.387300705 58.0
11.439821835 60.0
11.492342966 48.0
11.544864097 57.0
11.597385228 65.0
11.649906358 66.0
11.702427489 77.0
11.754948620 60.0
11.807469750 89.0
11.859990881 59.0
11.912512012 69.0
11.965033142 66.0
12.017554273 63.0
12.070075404 59.0
12.122596535 55.0
12.175117665 61.0
12.227638796 63.0
12.280159927 74.0
12.332681057 64.0
12.385202188 57.0
12.437723319 74.0
12.490244449 53.0
12.542765580 67.0
12.595286711 58.0
12.647807842 59.0
12.700328972 54.0
12.752850103 61.0
12.805371234 62.0
12.857892364 64.0
12.910413495 82.0
12.962934626 59.0
13.015455757 53.0
13.067976887 59.0
13.120498018 64.0
13.173019149 64.0
13.225540279 61.0
13.278061410 52.0
13.330582541 68.0
13.383103671 62.0
13.435624802 63.0
13.488145933 70.0
13.540667064 58.0
13.593188194 63.0
13.645709325 57.0
13.698230456 60.0
13.750751586 62.0
13.803272717 68.0
13.855793848 60.0
13.908314979 58.0
13.960836109 54.0
14.013357240 62.0
14.065878371 68.0
14.118399501 55.0
14.170920632 48.0
14.223441763 57.0
14.275962893 66.0
14.328484024 64.0
14.381005155 68.0
14.433526286 55.0
14.486047416 62.0
14.538568547 53.0
14.591089678 63.0
14.643610808 59.0
14.696131939 59.0
14.748653070 74.0
14.801174200 55.0
14.853695331 61.0
14.906216462 59.0
14.958737593 51.0
15.011258723 48.0
15.063779854 50.0
15.116300985 56.0
15.168822115 63.0
15.221343246 57.0
15.273864377 56.0
15.326385508 42.0
15.378906638 55.0
15.431427769 60.0
15.483948900 50.0
15.536470030 43.0
15.588991161 63.0
15.641512292 60.0
15.694033422 47.0
15.746554553 57.0
15.799075684 56.0
15.851596815 70.0
15.904117945 64.0
15.956639076 45.0
16.009160207 60.0
16.061681337 43.0
16.114202468 43.0
16.166723599 58.0
16.219244730 58.0
16.271765860 56.0
16.324286991 65.0
16.376808122 47.0
16.429329252 51.0
16.481850383 50.0
16.534371514 43.0
16.586892644 45.0
16.639413775 56.0
16.691934906 44.0
16.744456037 44.0
16.796977167 48.0
16.849498298 63.0
16.902019429 49.0
16.954540559 50.0
17.007061690 60.0
17.059582821 49.0
17.112103951 43.0
17.164625082 60.0
17.217146213 59.0
17.269667344 53.0
17.322188474 37.0
17.374709605 42.0
17.427230736 38.0
17.479751866 52.0
17.532272997 39.0
17.584794128 53.0
17.637315259 56.0
17.689836389 56.0
17.742357520 55.0
17.794878651 41.0
17.847399781 55.0
17.899920912 39.0
17.952442043 47.0
18.004963173 35.0
18.057484304 57.0
18.110005435 49.0
18.162526566 54.0
18.215047696 50.0
18.267568827 44.0
18.320089958 64.0
18.372611088 48.0
18.425132219 52.0
18.477653350 67.0
18.530174481 38.0
18.582695611 45.0
18.635216742 53.0
18.687737873 46.0
18.740259003 29.0
18.792780134 52.0
18.845301265 57.0
18.897822395 40.0
18.950343526 57.0
19.002864657 55.0
19.055385788 39.0
19.107906918 54.0
19.160428049 39.0
19.212949180 61.0
19.265470310 32.0
19.317991441 42.0
19.370512572 56.0
19.423033702 46.0
19.475554833 45.0
19.528075964 48.0
19.580597095 40.0
19.633118225 31.0
19.685639356 57.0
19.738160487 47.0
19.790681617 27.0
19.843202748 54.0
19.895723879 40.0
19.948245010 40.0
20.000766140 41.0
20.053287271 39.0
20.105808402 54.0
20.158329532 52.0
20.210850663 50.0
20.263371794 50.0
20.315892924 55.0
20.368414055 43.0
20.420935186 34.0
20.473456317 48.0
20.525977447 45.0
20.578498578 38.0
20.631019709 51.0
20.683540839 39.0
20.736061970 51.0
20.788583101 21.0
20.841104232 42.0
20.893625362 51.0
20.946146493 47.0
20.998667624 41.0
21.051188754 40.0
21.103709885 40.0
21.156231016 39.0
21.208752146 32.0
21.261273277 43.0
21.313794408 43.0
21.366315539 46.0
21.418836669 33.0
21.471357800 42.0
21.523878931 32.0
21.576400061 35.0
21.628921192 38.0
21.681442323 41.0
21.733963453 49.0
21.786484584 37.0
21.839005715 40.0
21.891526846 42.0
21.944047976 46.0
21.996569107 37.0
22.049090238 42.0
22.101611368 34.0
22.154132499 32.0
22.206653630 48.0
22.259174761 43.0
22.311695891 44.0
22.364217022 46.0
22.416738153 26.0
22.469259283 32.0
22.521780414 42.0
22.574301545 41.0
22.626822675 33.0
22.679343806 30.0
22.731864937 31.0
22.784386068 47.0
22.836907198 54.0
22.889428329 28.0
22.941949460 45.0
22.994470590 37.0
23.046991721 41.0
23.099512852 37.0
23.152033983 30.0
23.204555113 38.0
23.257076244 38.0
23.309597375 35.0
23.362118505 38.0
23.414639636 36.0
23.467160767 41.0
23.519681897 47.0
23.572203028 50.0
23.624724159 50.0
23.677245290 35.0
23.729766420 34.0
23.782287551 35.0
23.834808682 32.0
23.887329812 33.0
23.939850943 39.0
23.992372074 32.0
24.044893204 40.0
24.097414335 45.0
24.149935466 35.0
24.202456597 42.0
24.254977727 43.0
24.307498858 40.0
24.360019989 36.0
24.412541119 39.0
24.465062250 34.0
24.517583381 33.0
24.570104512 23.0
24.622625642 28.0
24.675146773 41.0
24.727667904 32.0
24.780189034 32.0
24.832710165 30.0
24.885231296 27.0
24.937752426 41.0
24.990273557 32.0
25.042794688 39.0
25.095315819 51.0
25.147836949 39.0
25.200358080 31.0
25.252879211 23.0
25.305400341 24.0
25.357921472 37.0
25.410442603 35.0
25.462963733 44.0
25.515484864 32.0
25.568005995 30.0
25.620527126 25.0
25.673048256 42.0
25.725569387 33.0
25.778090518 29.0
25.830611648 33.0
25.883132779 28.0
25.935653910 38.0
25.988175041 43.0
26.040696171 26.0
26.093217302 34.0
26.145738433 38.0
26.198259563 42.0
26.250780694 33.0
26.303301825 37.0
26.355822955 27.0
26.408344086 30.0
26.460865217 25.0
26.513386348 26.0
26.565907478 30.0
26.618428609 26.0
26.670949740 38.0
26.723470870 21.0
26.775992001 29.0
26.828513132 26.0
26.881034263 31.0
26.933555393 30.0
26.986076524 26.0
27.038597655 32.0
27.091118785 30.0
27.143639916 37.0
27.196161047 44.0
27.248682177 33.0
27.301203308 79.0
27.353724439 162.0
27.406245570 371.0
27.458766700 427.0
27.511287831 199.0
27.563808962 73.0
27.616330092 43.0
27.668851223 33.0
27.721372354 31.0
27.773893484 31.0
27.826414615 33.0
27.878935746 29.0
27.931456877 31.0
27.983978007 26.0
28.036499138 31.0
28.089020269 25.0
28.141541399 34.0
28.194062530 27.0
28.246583661 25.0
28.299104792 31.0
28.351625922 38.0
28.404147053 30.0
28.456668184 20.0
28.509189314 26.0
28.561710445 42.0
28.614231576 27.0
28.666752706 26.0
28.719273837 25.0
28.771794968 29.0
28.824316099 27.0
28.876837229 36.0
28.929358360 38.0
28.981879491 31.0
29.034400621 38.0
29.086921752 31.0
29.139442883 48.0
29.191964014 40.0
29.244485144 34.0
29.297006275 26.0
29.349527406 29.0
29.402048536 52.0
29.454569667 28.0
29.507090798 32.0
29.559611928 38.0
29.612133059 36.0
29.664654190 35.0
29.717175321 22.0
29.769696451 23.0
29.822217582 26.0
29.874738713 23.0
29.927259843 32.0
29.979780974 33.0
30.032302105 29.0
30.084823235 32.0
30.137344366 32.0
30.189865497 36.0
30.242386628 30.0
30.294907758 33.0
30.347428889 34.0
30.399950020 38.0
30.452471150 32.0
30.504992281 31.0
30.557513412 33.0
30.610034543 28.0
30.662555673 32.0
30.715076804 43.0
30.767597935 30.0
30.820119065 35.0
30.872640196 30.0
30.925161327 30.0
30.977682457 30.0
31.030203588 39.0
31.082724719 40.0
31.135245850 53.0
31.187766980 46.0
31.240288111 46.0
31.292809242 61.0
31.345330372 47.0
31.397851503 57.0
31.450372634 49.0
31.502893765 107.0
31.555414895 219.0
31.607936026 551.0
31.660457157 1852.0
31.712978287 6122.0
31.765499418 13621.0
31.818020549 11381.0
31.870541679 3114.0
31.923062810 518.0
31.975583941 164.0
32.028105072 79.0
32.080626202 79.0
32.133147333 49.0
32.185668464 52.0
32.238189594 45.0
32.290710725 50.0
32.343231856 45.0
32.395752986 32.0
32.448274117 48.0
32.500795248 46.0
32.553316379 46.0
32.605837509 36.0
32.658358640 40.0
32.710879771 32.0
32.763400901 33.0
32.815922032 37.0
32.868443163 25.0
32.920964294 29.0
32.973485424 44.0
33.026006555 28.0
33.078527686 31.0
33.131048816 41.0
33.183569947 23.0
33.236091078 37.0
33.288612208 34.0
33.341133339 25.0
33.393654470 31.0
33.446175601 34.0
33.498696731 19.0
33.551217862 27.0
33.603738993 30.0
33.656260123 19.0
33.708781254 29.0
33.761302385 24.0
33.813823516 22.0
33.866344646 32.0
33.918865777 30.0
33.971386908 30.0
34.023908038 32.0
34.076429169 24.0
34.128950300 28.0
34.181471430 26.0
34.233992561 22.0
34.286513692 27.0
34.339034823 25.0
34.391555953 24.0
34.444077084 18.0
34.496598215 16.0
34.549119345 29.0
34.601640476 18.0
34.654161607 29.0
34.706682737 23.0
34.759203868 15.0
34.811724999 22.0
34.864246130 30.0
34.916767260 12.0
34.969288391 17.0
35.021809522 17.0
35.074330652 24.0
35.126851783 23.0
35.179372914 19.0
35.231894045 19.0
35.284415175 20.0
35.336936306 27.0
35.389457437 12.0
35.441978567 23.0
35.494499698 22.0
35.547020829 26.0
35.599541959 15.0
35.652063090 21.0
35.704584221 22.0
35.757105352 17.0
35.809626482 17.0
35.862147613 26.0
35.914668744 18.0
35.967189874 15.0
36.019711005 21.0
36.072232136 30.0
36.124753267 36.0
36.177274397 15.0
36.229795528 24.0
36.282316659 15.0
36.334837789 14.0
36.387358920 16.0
36.439880051 23.0
36.492401181 11.0
36.544922312 27.0
36.597443443 17.0
36.649964574 11.0
36.702485704 22.0
36.755006835 14.0
36.807527966 23.0
36.860049096 13.0
36.912570227 20.0
36.965091358 18.0
37.017612488 20.0
37.070133619 14.0
37.122654750 20.0
37.175175881 17.0
37.227697011 17.0
37.280218142 18.0
37.332739273 19.0
37.385260403 16.0
37.437781534 18.0
37.490302665 9.0
37.542823796 21.0
37.595344926 15.0
37.647866057 10.0
37.700387188 13.0
37.752908318 17.0
37.805429449 11.0
37.857950580 14.0
37.910471710 20.0
37.962992841 20.0
38.015513972 8.0
38.068035103 23.0
38.120556233 16.0
38.173077364 20.0
38.225598495 23.0
38.278119625 22.0
38.330640756 21.0
38.383161887 21.0
38.435683018 19.0
38.488204148 15.0
38.540725279 19.0
38.593246410 9.0
38.645767540 13.0
38.698288671 19.0
38.750809802 23.0
38.803330932 18.0
38.855852063 18.0
38.908373194 26.0
38.960894325 14.0
39.013415455 15.0
39.065936586 23.0
39.118457717 19.0
39.170978847 15.0
39.223499978 14.0
39.276021109 20.0
39.328542239 8.0
39.381063370 21.0
39.433584501 19.0
39.486105632 14.0
39.538626762 12.0
39.591147893 16.0
39.643669024 10.0
39.696190154 15.0
39.748711285 12.0
39.801232416 11.0
39.853753547 10.0
39.906274677 14.0
39.958795808 15.0
40.011316939 16.0
40.063838069 18.0
40.116359200 13.0
40.168880331 24.0
40.221401461 23.0
40.273922592 14.0
40.326443723 14.0
40.378964854 21.0
40.431485984 20.0
40.484007115 16.0
40.536528246 14.0
40.589049376 19.0
40.641570507 15.0
40.694091638 20.0
40.746612769 21.0
40.799133899 17.0
40.851655030 16.0
40.904176161 14.0
40.956697291 9.0
41.009218422 17.0
41.061739553 7.0
41.114260683 15.0
41.166781814 19.0
41.219302945 19.0
41.271824076 17.0
41.324345206 17.0
41.376866337 12.0
41.429387468 15.0
41.481908598 15.0
41.534429729 13.0
41.586950860 23.0
41.639471990 16.0
41.691993121 11.0
41.744514252 22.0
41.797035383 14.0
41.849556513 15.0
41.902077644 18.0
41.954598775 11.0
42.007119905 15.0
42.059641036 12.0
42.112162167 16.0
42.164683298 15.0
42.217204428 16.0
42.269725559 19.0
42.322246690 11.0
42.374767820 17.0
42.427288951 19.0
42.479810082 17.0
42.532331212 10.0
42.584852343 18.0
42.637373474 16.0
42.689894605 13.0
42.742415735 14.0
42.794936866 11.0
42.847457997 16.0
42.899979127 17.0
42.952500258 16.0
43.005021389 15.0
43.057542520 17.0
43.110063650 15.0
43.162584781 10.0
43.215105912 18.0
43.267627042 11.0
43.320148173 18.0
43.372669304 15.0
43.425190434 17.0
43.477711565 15.0
43.530232696 26.0
43.582753827 20.0
43.635274957 19.0
43.687796088 15.0
43.740317219 13.0
43.792838349 22.0
43.845359480 13.0
43.897880611 18.0
43.950401741 14.0
44.002922872 11.0
44.055444003 21.0
44.107965134 17.0
44.160486264 27.0
44.213007395 17.0
44.265528526 19.0
44.318049656 17.0
44.370570787 20.0
44.423091918 9.0
44.475613049 15.0
44.528134179 15.0
44.580655310 28.0
44.633176441 20.0
44.685697571 12.0
44.738218702 18.0
44.790739833 24.0
44.843260963 25.0
44.895782094 24.0
44.948303225 18.0
45.000824356 15.0
45.053345486 25.0
45.105866617 26.0
45.158387748 27.0
45.210908878 55.0
45.263430009 56.0
45.315951140 138.0
45.368472271 319.0
45.420993401 992.0
45.473514532 2367.0
45.526035663 2915.0
45.578556793 1826.0
45.631077924 639.0
45.683599055 209.0
45.736120185 80.0
45.788641316 58.0
45.841162447 58.0
45.893683578 29.0
45.946204708 36.0
45.998725839 23.0
46.051246970 19.0
46.103768100 21.0
46.156289231 32.0
46.208810362 15.0
46.261331492 18.0
46.313852623 15.0
46.366373754 20.0
46.418894885 19.0
46.471416015 16.0
46.523937146 15.0
46.576458277 23.0
46.628979407 15.0
46.681500538 23.0
46.734021669 12.0
46.786542800 15.0
46.839063930 11.0
46.891585061 16.0
46.944106192 7.0
46.996627322 16.0
47.049148453 16.0
47.101669584 13.0
47.154190714 16.0
47.206711845 29.0
47.259232976 12.0
47.311754107 6.0
47.364275237 13.0
47.416796368 12.0
47.469317499 11.0
47.521838629 17.0
47.574359760 16.0
47.626880891 9.0
47.679402022 9.0
47.731923152 19.0
47.784444283 14.0
47.836965414 8.0
47.889486544 28.0
47.942007675 11.0
47.994528806 15.0
48.047049936 7.0
48.099571067 19.0
48.152092198 16.0
48.204613329 11.0
48.257134459 17.0
48.309655590 9.0
48.362176721 12.0
48.414697851 9.0
48.467218982 15.0
48.519740113 21.0
48.572261243 9.0
48.624782374 10.0
48.677303505 12.0
48.729824636 19.0
48.782345766 8.0
48.834866897 13.0
48.887388028 14.0
48.939909158 13.0
48.992430289 8.0
49.044951420 11.0
49.097472551 18.0
49.149993681 16.0
49.202514812 15.0
49.255035943 3.0
49.307557073 13.0
49.360078204 11.0
49.412599335 10.0
49.465120465 10.0
49.517641596 14.0
49.570162727 10.0
49.622683858 14.0
49.675204988 10.0
49.727726119 7.0
49.780247250 9.0
49.832768380 12.0
49.885289511 11.0
49.937810642 15.0
49.990331772 19.0
50.042852903 8.0
50.095374034 8.0
50.147895165 10.0
50.200416295 12.0
50.252937426 16.0
50.305458557 10.0
50.357979687 22.0
50.410500818 10.0
50.463021949 15.0
50.515543080 10.0
50.568064210 9.0
50.620585341 15.0
50.673106472 6.0
50.725627602 8.0
50.778148733 13.0
50.830669864 8.0
50.883190994 12.0
50.935712125 12.0
50.988233256 14.0
51.040754387 10.0
51.093275517 14.0
51.145796648 7.0
51.198317779 15.0
51.250838909 8.0
51.303360040 12.0
51.355881171 10.0
51.408402302 8.0
51.460923432 13.0
51.513444563 10.0
51.565965694 10.0
51.618486824 9.0
51.671007955 9.0
51.723529086 5.0
51.776050216 18.0
51.828571347 5.0
51.881092478 13.0
51.933613609 10.0
51.986134739 10.0
52.038655870 6.0
52.091177001 8.0
52.143698131 4.0
52.196219262 5.0
52.248740393 13.0
52.301261523 9.0
52.353782654 13.0
52.406303785 3.0
52.458824916 12.0
52.511346046 15.0
52.563867177 13.0
52.616388308 12.0
52.668909438 5.0
52.721430569 10.0
52.773951700 5.0
52.826472831 18.0
52.878993961 15.0
52.931515092 9.0
52.984036223 11.0
53.036557353 6.0
53.089078484 3.0
53.141599615 3.0
53.194120745 6.0
53.246641876 18.0
53.299163007 14.0
53.351684138 14.0
53.404205268 7.0
53.456726399 12.0
53.509247530 10.0
53.561768660 15.0
53.614289791 15.0
53.666810922 14.0
53.719332053 12.0
53.771853183 39.0
53.824374314 46.0
53.876895445 85.0
53.929416575 101.0
53.981937706 102.0
54.034458837 39.0
54.086979967 20.0
54.139501098 18.0
54.192022229 12.0
54.244543360 11.0
54.297064490 7.0
54.349585621 12.0
54.402106752 8.0
54.454627882 16.0
54.507149013 10.0
54.559670144 9.0
54.612191274 11.0
54.664712405 14.0
54.717233536 16.0
54.769754667 12.0
54.822275797 9.0
54.874796928 7.0
54.927318059 9.0
54.979839189 11.0
55.032360320 8.0
55.084881451 16.0
55.137402582 7.0
55.189923712 11.0
55.242444843 14.0
55.294965974 7.0
55.347487104 10.0
55.400008235 8.0
55.452529366 12.0
55.505050496 7.0
55.557571627 9.0
55.610092758 5.0
55.662613889 8.0
55.715135019 14.0
55.767656150 8.0
55.820177281 3.0
55.872698411 9.0
55.925219542 12.0
55.977740673 15.0
56.030261804 15.0
56.082782934 19.0
56.135304065 10.0
56.187825196 22.0
56.240346326 13.0
56.292867457 36.0
56.345388588 59.0
56.397909718 143.0
56.450430849 337.0
56.502951980 637.0
56.555473111 677.0
56.607994241 375.0
56.660515372 152.0
56.713036503 48.0
56.765557633 36.0
56.818078764 21.0
56.870599895 14.0
56.923121025 17.0
56.975642156 22.0
57.028163287 15.0
57.080684418 10.0
57.133205548 14.0
57.185726679 9.0
57.238247810 11.0
57.290768940 15.0
57.343290071 12.0
57.395811202 13.0
57.448332333 6.0
57.500853463 9.0
57.553374594 10.0
57.605895725 11.0
57.658416855 11.0
57.710937986 11.0
57.763459117 10.0
57.815980247 11.0
57.868501378 9.0
57.921022509 19.0
57.973543640 13.0
58.026064770 12.0
58.078585901 10.0
58.131107032 9.0
58.183628162 3.0
58.236149293 10.0
58.288670424 3.0
58.341191555 5.0
58.393712685 8.0
58.446233816 8.0
58.498754947 9.0
58.551276077 13.0
58.603797208 8.0
58.656318339 12.0
58.708839469 9.0
58.761360600 9.0
58.813881731 15.0
58.866402862 7.0
58.918923992 16.0
58.971445123 5.0
59.023966254 10.0
59.076487384 10.0
59.129008515 14.0
59.181529646 11.0
59.234050776 6.0
59.286571907 10.0
59.339093038 6.0
59.391614169 11.0
59.444135299 8.0
59.496656430 6.0
59.549177561 5.0
59.601698691 6.0
59.654219822 11.0
59.706740953 9.0
59.759262084 5.0
59.811783214 8.0
59.864304345 4.0
59.916825476 6.0
59.969346606 17.0
60.021867737 10.0
60.074388868 4.0
60.126909998 8.0
60.179431129 8.0
60.231952260 7.0
60.284473391 11.0
60.336994521 9.0
60.389515652 7.0
60.442036783 10.0
60.494557913 5.0
60.547079044 11.0
60.599600175 7.0
60.652121306 14.0
60.704642436 7.0
60.757163567 4.0
60.809684698 4.0
60.862205828 9.0
60.914726959 7.0
60.967248090 6.0
61.019769220 6.0
61.072290351 7.0
61.124811482 8.0
61.177332613 5.0
61.229853743 1.0
61.282374874 9.0
61.334896005 2.0
61.387417135 11.0
61.439938266 8.0
61.492459397 11.0
61.544980527 6.0
61.597501658 5.0
61.650022789 14.0
61.702543920 5.0
61.755065050 8.0
61.807586181 9.0
61.860107312 5.0
61.912628442 5.0
61.965149573 11.0
62.017670704 4.0
62.070191835 14.0
62.122712965 5.0
62.175234096 11.0
62.227755227 7.0
62.280276357 6.0
62.332797488 4.0
62.385318619 8.0
62.437839749 6.0
62.490360880 15.0
62.542882011 11.0
62.595403142 9.0
62.647924272 8.0
62.700445403 6.0
62.752966534 14.0
62.805487664 9.0
62.858008795 3.0
62.910529926 8.0
62.963051057 11.0
63.015572187 10.0
63.068093318 3.0
63.120614449 2.0
63.173135579 7.0
63.225656710 6.0
63.278177841 17.0
63.330698971 1.0
63.383220102 7.0
63.435741233 7.0
63.488262364 4.0
63.540783494 5.0
63.593304625 5.0
63.645825756 8.0
63.698346886 11.0
63.750868017 9.0
63.803389148 12.0
63.855910278 10.0
63.908431409 7.0
63.960952540 2.0
64.013473671 11.0
64.065994801 12.0
64.118515932 8.0
64.171037063 6.0
64.223558193 10.0
64.276079324 12.0
64.328600455 6.0
64.381121586 7.0
64.433642716 11.0
64.486163847 8.0
64.538684978 12.0
64.591206108 7.0
64.643727239 9.0
64.696248370 10.0
64.748769500 8.0
64.801290631 6.0
64.853811762 9.0
64.906332893 15.0
64.958854023 3.0
65.011375154 3.0
65.063896285 6.0
65.116417415 14.0
65.168938546 12.0
65.221459677 9.0
65.273980808 8.0
65.326501938 14.0
65.379023069 13.0
65.431544200 10.0
65.484065330 10.0
65.536586461 10.0
65.589107592 21.0
65.641628722 7.0
65.694149853 14.0
65.746670984 17.0
65.799192115 11.0
65.851713245 19.0
65.904234376 22.0
65.956755507 30.0
66.009276637 22.0
66.061797768 43.0
66.114318899 61.0
66.166840029 192.0
66.219361160 501.0
66.271882291 806.0
66.324403422 752.0
66.376924552 299.0
66.429445683 115.0
66.481966814 49.0
66.534487944 34.0
66.587009075 21.0
66.639530206 18.0
66.692051337 8.0
66.744572467 14.0
66.797093598 11.0
66.849614729 15.0
66.902135859 11.0
66.954656990 20.0
67.007178121 13.0
67.059699251 9.0
67.112220382 13.0
67.164741513 7.0
67.217262644 13.0
67.269783774 15.0
67.322304905 17.0
67.374826036 11.0
67.427347166 12.0
67.479868297 11.0
67.532389428 13.0
67.584910559 13.0
67.637431689 9.0
67.689952820 5.0
67.742473951 9.0
67.794995081 6.0
67.847516212 8.0
67.900037343 10.0
67.952558473 8.0
68.005079604 10.0
68.057600735 9.0
68.110121866 15.0
68.162642996 12.0
68.215164127 20.0
68.267685258 10.0
68.320206388 5.0
68.372727519 12.0
68.425248650 13.0
68.477769780 6.0
68.530290911 12.0
68.582812042 7.0
68.635333173 6.0
68.687854303 17.0
68.740375434 6.0
68.792896565 7.0
68.845417695 13.0
68.897938826 7.0
68.950459957 7.0
69.002981088 6.0
69.055502218 12.0
69.108023349 12.0
69.160544480 9.0
69.213065610 10.0
69.265586741 10.0
69.318107872 6.0
69.370629002 9.0
69.423150133 9.0
69.475671264 13.0
69.528192395 11.0
69.580713525 9.0
69.633234656 10.0
69.685755787 9.0
69.738276917 14.0
69.790798048 10.0
69.843319179 12.0
69.895840310 16.0
69.948361440 17.0
70.000882571 5.0
70.053403702 6.0
70.105924832 7.0
70.158445963 8.0
70.210967094 9.0
70.263488224 9.0
70.316009355 3.0
70.368530486 6.0
70.421051617 9.0
70.473572747 12.0
70.526093878 15.0
70.578615009 6.0
70.631136139 13.0
70.683657270 10.0
70.736178401 11.0
70.788699531 14.0
70.841220662 12.0
70.893741793 7.0
70.946262924 13.0
70.998784054 9.0
71.051305185 10.0
71.103826316 8.0
71.156347446 11.0
71.208868577 9.0
71.261389708 10.0
71.313910839 8.0
71.366431969 14.0
71.418953100 8.0
71.471474231 8.0
71.523995361 16.0
71.576516492 4.0
71.629037623 6.0
71.681558753 5.0
71.734079884 9.0
71.786601015 9.0
71.839122146 9.0
71.891643276 13.0
71.944164407 11.0
71.996685538 15.0
72.049206668 7.0
72.101727799 14.0
72.154248930 5.0
72.206770060 14.0
72.259291191 9.0
72.311812322 6.0
72.364333453 9.0
72.416854583 6.0
72.469375714 15.0
72.521896845 10.0
72.574417975 18.0
72.626939106 14.0
72.679460237 8.0
72.731981368 8.0
72.784502498 12.0
72.837023629 7.0
72.889544760 16.0
72.942065890 17.0
72.994587021 27.0
73.047108152 41.0
73.099629282 41.0
73.152150413 49.0
73.204671544 34.0
73.257192675 24.0
73.309713805 20.0
73.362234936 12.0
73.414756067 23.0
73.467277197 17.0
73.519798328 9.0
73.572319459 8.0
73.624840590 7.0
73.677361720 11.0
73.729882851 17.0
73.782403982 9.0
73.834925112 21.0
73.887446243 14.0
73.939967374 14.0
73.992488504 20.0
74.045009635 3.0
74.097530766 9.0
74.150051897 15.0
74.202573027 7.0
74.255094158 9.0
74.307615289 7.0
74.360136419 14.0
74.412657550 9.0
74.465178681 15.0
74.517699811 17.0
74.570220942 8.0
74.622742073 13.0
74.675263204 25.0
74.727784334 16.0
74.780305465 20.0
74.832826596 23.0
74.885347726 24.0
74.937868857 25.0
74.990389988 33.0
75.042911119 26.0
75.095432249 56.0
75.147953380 126.0
75.200474511 216.0
75.252995641 423.0
75.305516772 674.0
75.358037903 789.0
75.410559033 512.0
75.463080164 277.0
75.515601295 143.0
75.568122426 68.0
75.620643556 43.0
75.673164687 29.0
75.725685818 29.0
75.778206948 26.0
75.830728079 10.0
75.883249210 12.0
75.935770341 11.0
75.988291471 20.0
76.040812602 19.0
76.093333733 22.0
76.145854863 18.0
76.198375994 16.0
76.250897125 15.0
76.303418255 11.0
76.355939386 15.0
76.408460517 15.0
76.460981648 24.0
76.513502778 11.0
76.566023909 12.0
76.618545040 8.0
76.671066170 15.0
76.723587301 4.0
76.776108432 7.0
76.828629562 18.0
76.881150693 13.0
76.933671824 3.0
76.986192955 18.0
77.038714085 6.0
77.091235216 7.0
77.143756347 13.0
77.196277477 10.0
77.248798608 8.0
77.301319739 12.0
77.353840870 12.0
77.406362000 5.0
77.458883131 13.0
77.511404262 4.0
77.563925392 15.0
77.616446523 10.0
77.668967654 11.0
77.721488784 7.0
77.774009915 10.0
77.826531046 8.0
77.879052177 12.0
77.931573307 8.0
77.984094438 8.0
78.036615569 11.0
78.089136699 9.0
78.141657830 10.0
78.194178961 11.0
78.246700092 8.0
78.299221222 12.0
78.351742353 16.0
78.404263484 9.0
78.456784614 6.0
78.509305745 13.0
78.561826876 12.0
78.614348006 15.0
78.666869137 14.0
78.719390268 9.0
78.771911399 14.0
78.824432529 11.0
78.876953660 6.0
78.929474791 8.0
78.981995921 8.0
79.034517052 3.0
79.087038183 11.0
79.139559313 7.0
79.192080444 6.0
79.244601575 13.0
79.297122706 14.0
79.349643836 4.0
79.402164967 9.0
79.454686098 14.0
79.507207228 9.0
79.559728359 8.0
79.612249490 5.0
79.664770621 11.0
79.717291751 7.0
79.769812882 9.0
79.822334013 22.0
79.874855143 9.0
79.927376274 10.0
79.979897405 6.0
80.032418535 12.0
80.084939666 9.0
80.137460797 7.0
80.189981928 13.0
80.242503058 7.0
80.295024189 11.0
80.347545320 12.0
80.400066450 10.0
80.452587581 9.0
80.505108712 17.0
80.557629843 13.0
80.610150973 16.0
80.662672104 11.0
80.715193235 15.0
80.767714365 9.0
80.820235496 18.0
80.872756627 17.0
80.925277757 10.0
80.977798888 8.0
81.030320019 8.0
81.082841150 7.0
81.135362280 7.0
81.187883411 9.0
81.240404542 11.0
81.292925672 10.0
81.345446803 8.0
81.397967934 10.0
81.450489064 5.0
81.503010195 13.0
81.555531326 10.0
81.608052457 23.0
81.660573587 9.0
81.713094718 7.0
81.765615849 6.0
81.818136979 16.0
81.870658110 6.0
81.923179241 10.0
81.975700372 19.0
82.028221502 11.0
82.080742633 7.0
82.133263764 12.0
82.185784894 14.0
82.238306025 13.0
82.290827156 8.0
82.343348286 5.0
82.395869417 8.0
82.448390548 9.0
82.500911679 14.0
82.553432809 7.0
82.605953940 8.0
82.658475071 8.0
82.710996201 7.0
82.763517332 11.0
82.816038463 14.0
82.868559594 10.0
82.921080724 10.0
82.973601855 9.0
83.026122986 9.0
83.078644116 17.0
83.131165247 3.0
83.183686378 18.0
83.236207508 9.0
83.288728639 20.0
83.341249770 14.0
83.393770901 19.0
83.446292031 10.0
83.498813162 16.0
83.551334293 16.0
83.603855423 23.0
83.656376554 27.0
83.708897685 24.0
83.761418815 39.0
83.813939946 51.0
83.866461077 98.0
83.918982208 223.0
83.971503338 333.0
84.024024469 414.0
84.076545600 377.0
84.129066730 235.0
84.181587861 132.0
84.234108992 81.0
84.286630123 62.0
84.339151253 29.0
84.391672384 17.0
84.444193515 29.0
84.496714645 27.0
84.549235776 13.0
84.601756907 13.0
84.654278037 11.0
84.706799168 13.0
84.759320299 15.0
84.811841430 17.0
84.864362560 11.0
84.916883691 11.0
84.969404822 7.0
85.021925952 12.0
85.074447083 17.0
85.126968214 12.0
85.179489345 11.0
85.232010475 16.0
85.284531606 13.0
85.337052737 7.0
85.389573867 10.0
85.442094998 7.0
85.494616129 13.0
85.547137259 13.0
85.599658390 10.0
85.652179521 12.0
85.704700652 16.0
85.757221782 8.0
85.809742913 3.0
85.862264044 9.0
85.914785174 8.0
85.967306305 12.0
86.019827436 8.0
86.072348566 4.0
86.124869697 4.0
86.177390828 4.0
86.229911959 9.0
86.282433089 12.0
86.334954220 13.0
86.387475351 5.0
86.439996481 5.0
86.492517612 6.0
86.545038743 10.0
86.597559874 16.0
86.650081004 2.0
86.702602135 7.0
86.755123266 12.0
86.807644396 8.0
86.860165527 8.0
86.912686658 8.0
86.965207788 9.0
87.017728919 6.0
87.070250050 7.0
87.122771181 10.0
87.175292311 13.0
87.227813442 5.0
87.280334573 8.0
87.332855703 7.0
87.385376834 5.0
87.437897965 7.0
87.490419096 7.0
87.542940226 13.0
87.595461357 8.0
87.647982488 8.0
87.700503618 5.0
87.753024749 10.0
87.805545880 12.0
87.858067010 4.0
87.910588141 9.0
87.963109272 5.0
88.015630403 7.0
88.068151533 7.0
88.120672664 13.0
88.173193795 10.0
88.225714925 11.0
88.278236056 11.0
88.330757187 8.0
88.383278317 7.0
88.435799448 9.0
88.488320579 7.0
88.540841710 13.0
88.593362840 5.0
88.645883971 6.0
88.698405102 10.0
88.750926232 6.0
88.803447363 10.0
88.855968494 12.0
88.908489625 11.0
88.961010755 8.0
89.013531886 9.0
89.066053017 4.0
89.118574147 10.0
89.171095278 5.0
89.223616409 6.0
89.276137539 10.0
89.328658670 10.0
89.381179801 11.0
89.433700932 5.0
89.486222062 6.0
89.538743193 9.0
89.591264324 8.0
89.643785454 7.0
89.696306585 8.0
89.748827716 9.0
89.801348847 12.0
89.853869977 8.0
89.906391108 9.0
89.958912239 3.0
90.011433369 10.0
90.063954500 9.0
90.116475631 5.0
90.168996761 5.0
90.221517892 17.0
90.274039023 17.0
90.326560154 22.0
90.379081284 32.0
90.431602415 33.0
90.484123546 56.0
90.536644676 34.0
90.589165807 17.0
90.641686938 21.0
90.694208068 7.0
90.746729199 15.0
90.799250330 7.0
90.851771461 6.0
90.904292591 10.0
90.956813722 6.0
91.009334853 4.0
91.061855983 4.0
91.114377114 5.0
91.166898245 11.0
91.219419376 6.0
91.271940506 6.0
91.324461637 6.0
91.376982768 9.0
91.429503898 6.0
91.482025029 9.0
91.534546160 13.0
91.587067290 11.0
91.639588421 12.0
91.692109552 13.0
91.744630683 5.0
91.797151813 2.0
91.849672944 6.0
91.902194075 5.0
91.954715205 8.0
92.007236336 10.0
92.059757467 1.0
92.112278598 6.0
92.164799728 7.0
92.217320859 11.0
92.269841990 7.0
92.322363120 7.0
92.374884251 9.0
92.427405382 9.0
92.479926512 2.0
92.532447643 6.0
92.584968774 6.0
92.637489905 9.0
92.690011035 4.0
92.742532166 3.0
92.795053297 6.0
92.847574427 6.0
92.900095558 9.0
92.952616689 6.0
93.005137819 8.0
93.057658950 4.0
93.110180081 3.0
93.162701212 8.0
93.215222342 5.0
93.267743473 6.0
93.320264604 10.0
93.372785734 2.0
93.425306865 4.0
93.477827996 3.0
93.530349127 9.0
93.582870257 7.0
93.635391388 3.0
93.687912519 5.0
93.740433649 4.0
93.792954780 4.0
93.845475911 2.0
93.897997041 9.0
93.950518172 4.0
94.003039303 4.0
94.055560434 3.0
94.108081564 5.0
94.160602695 8.0
94.213123826 6.0
94.265644956 12.0
94.318166087 13.0
94.370687218 11.0
94.423208348 6.0
94.475729479 3.0
94.528250610 6.0
94.580771741 8.0
94.633292871 12.0
94.685814002 6.0
94.738335133 5.0
94.790856263 11.0
94.843377394 8.0
94.895898525 11.0
94.948419656 9.0
95.000940786 3.0
95.053461917 5.0
95.105983048 3.0
95.158504178 5.0
95.211025309 7.0
95.263546440 7.0
95.316067570 7.0
95.368588701 5.0
95.421109832 6.0
95.473630963 13.0
95.526152093 8.0
95.578673224 5.0
95.631194355 8.0
95.683715485 8.0
95.736236616 9.0
95.788757747 4.0
95.841278878 3.0
95.893800008 6.0
95.946321139 3.0
95.998842270 7.0
96.051363400 10.0
96.103884531 13.0
96.156405662 8.0
96.208926792 4.0
96.261447923 10.0
96.313969054 2.0
96.366490185 12.0
96.419011315 10.0
96.471532446 6.0
96.524053577 5.0
96.576574707 9.0
96.629095838 10.0
96.681616969 2.0
96.734138099 10.0
96.786659230 10.0
96.839180361 6.0
96.891701492 10.0
96.944222622 15.0
96.996743753 7.0
97.049264884 6.0
97.101786014 10.0
97.154307145 6.0
97.206828276 13.0
97.259349407 11.0
97.311870537 6.0
97.364391668 9.0
97.416912799 6.0
97.469433929 8.0
97.521955060 7.0
97.574476191 2.0
97.626997321 8.0
97.679518452 8.0
97.732039583 7.0
97.784560714 3.0
97.837081844 7.0
97.889602975 9.0
97.942124106 12.0
97.994645236 9.0
98.047166367 6.0
98.099687498 9.0
98.152208629 6.0
98.204729759 12.0
98.257250890 14.0
98.309772021 8.0
98.362293151 5.0
98.414814282 12.0
98.467335413 5.0
98.519856543 6.0
98.572377674 4.0
98.624898805 11.0
98.677419936 11.0
98.729941066 4.0
98.782462197 12.0
98.834983328 7.0
98.887504458 6.0
98.940025589 2.0
98.992546720 7.0
99.045067850 8.0
99.097588981 8.0
99.150110112 3.0
99.202631243 6.0
99.255152373 4.0
99.307673504 8.0
99.360194635 9.0
99.412715765 11.0
99.465236896 7.0
99.517758027 9.0
99.570279158 8.0
99.622800288 8.0
99.675321419 11.0
99.727842550 10.0
99.780363680 10.0
99.832884811 10.0
99.885405942 7.0
99.937927072 3.0
99.990448203 10.0
100.042969334 9.0
100.095490465 6.0
100.148011595 17.0
100.200532726 8.0
100.253053857 7.0
100.305574987 14.0
100.358096118 12.0
100.410617249 11.0
100.463138380 10.0
100.515659510 8.0
100.568180641 6.0
100.620701772 8.0
100.673222902 11.0
100.725744033 20.0
100.778265164 17.0
100.830786294 17.0
100.883307425 17.0
100.935828556 24.0
100.988349687 24.0
101.040870817 48.0
101.093391948 66.0
101.145913079 88.0
101.198434209 93.0
101.250955340 93.0
101.303476471 62.0
101.355997601 54.0
101.408518732 24.0
101.461039863 15.0
101.513560994 25.0
101.566082124 16.0
101.618603255 6.0
101.671124386 9.0
101.723645516 8.0
101.776166647 18.0
101.828687778 8.0
101.881208909 10.0
101.933730039 11.0
101.986251170 9.0
102.038772301 7.0
102.091293431 12.0
102.143814562 10.0
102.196335693 5.0
102.248856823 13.0
102.301377954 7.0
102.353899085 9.0
102.406420216 11.0
102.458941346 6.0
102.511462477 4.0
102.563983608 12.0
102.616504738 9.0
102.669025869 9.0
102.721547000 12.0
102.774068131 8.0
102.826589261 6.0
102.879110392 7.0
102.931631523 4.0
102.984152653 8.0
103.036673784 5.0
103.089194915 7.0
103.141716045 12.0
103.194237176 12.0
103.246758307 7.0
103.299279438 12.0
103.351800568 6.0
103.404321699 11.0
103.456842830 5.0
103.509363960 12.0
103.561885091 9.0
103.614406222 14.0
103.666927352 10.0
103.719448483 13.0
103.771969614 5.0
103.824490745 11.0
103.877011875 6.0
103.929533006 15.0
103.982054137 12.0
104.034575267 3.0
104.087096398 6.0
104.139617529 6.0
104.192138660 12.0
104.244659790 5.0
104.297180921 18.0
104.349702052 13.0
104.402223182 9.0
104.454744313 11.0
104.507265444 9.0
104.559786574 9.0
104.612307705 8.0
104.664828836 5.0
104.717349967 2.0
104.769871097 8.0
104.822392228 11.0
104.874913359 5.0
104.927434489 6.0
104.979955620 12.0
105.032476751 6.0
105.084997882 8.0
105.137519012 5.0
105.190040143 7.0
105.242561274 8.0
105.295082404 7.0
105.347603535 11.0
105.400124666 14.0
105.452645796 9.0
105.505166927 10.0
105.557688058 13.0
105.610209189 23.0
105.662730319 8.0
105.715251450 7.0
105.767772581 7.0
105.820293711 6.0
105.872814842 7.0
105.925335973 5.0
105.977857103 7.0
106.030378234 5.0
106.082899365 8.0
106.135420496 11.0
106.187941626 18.0
106.240462757 3.0
106.292983888 8.0
106.345505018 7.0
106.398026149 7.0
106.450547280 14.0
106.503068411 7.0
106.555589541 8.0
106.608110672 7.0
106.660631803 13.0
106.713152933 15.0
106.765674064 5.0
106.818195195 10.0
106.870716325 14.0
106.923237456 5.0
106.975758587 12.0
107.028279718 5.0
107.080800848 8.0
107.133321979 7.0
107.185843110 7.0
107.238364240 16.0
107.290885371 7.0
107.343406502 9.0
107.395927633 5.0
107.448448763 14.0
107.500969894 8.0
107.553491025 15.0
107.606012155 27.0
107.658533286 22.0
107.711054417 31.0
107.763575547 39.0
107.816096678 49.0
107.868617809 38.0
107.921138940 21.0
107.973660070 20.0
108.026181201 28.0
108.078702332 26.0
108.131223462 10.0
108.183744593 9.0
108.236265724 13.0
108.288786854 14.0
108.341307985 12.0
108.393829116 14.0
108.446350247 14.0
108.498871377 6.0
108.551392508 18.0
108.603913639 8.0
108.656434769 7.0
108.708955900 9.0
108.761477031 8.0
108.813998162 7.0
108.866519292 9.0
108.919040423 17.0
108.971561554 7.0
109.024082684 9.0
109.076603815 7.0
109.129124946 7.0
109.181646076 18.0
109.234167207 14.0
109.286688338 11.0
109.339209469 13.0
109.391730599 20.0
109.444251730 17.0
109.496772861 15.0
109.549293991 21.0
109.601815122 14.0
109.654336253 25.0
109.706857384 35.0
109.759378514 48.0
109.811899645 63.0
109.864420776 88.0
109.916941906 113.0
109.969463037 156.0
110.021984168 199.0
110.074505298 210.0
110.127026429 203.0
110.179547560 164.0
110.232068691 104.0
110.284589821 65.0
110.337110952 47.0
110.389632083 36.0
110.442153213 31.0
110.494674344 16.0
110.547195475 11.0
110.599716605 15.0
110.652237736 17.0
110.704758867 25.0
110.757279998 20.0
110.809801128 12.0
110.862322259 16.0
110.914843390 17.0
110.967364520 7.0
111.019885651 9.0
111.072406782 7.0
111.124927913 11.0
111.177449043 13.0
111.229970174 9.0
111.282491305 15.0
111.335012435 20.0
111.387533566 18.0
111.440054697 12.0
111.492575827 4.0
111.545096958 17.0
111.597618089 18.0
111.650139220 10.0
111.702660350 11.0
111.755181481 8.0
111.807702612 9.0
111.860223742 12.0
111.912744873 14.0
111.965266004 5.0
112.017787135 8.0
112.070308265 18.0
112.122829396 5.0
112.175350527 10.0
112.227871657 8.0
112.280392788 6.0
112.332913919 5.0
112.385435049 11.0
112.437956180 8.0
112.490477311 9.0
112.542998442 14.0
112.595519572 13.0
112.648040703 7.0
112.700561834 6.0
112.753082964 6.0
112.805604095 10.0
112.858125226 7.0
112.910646356 5.0
112.963167487 8.0
113.015688618 10.0
113.068209749 18.0
113.120730879 11.0
113.173252010 9.0
113.225773141 6.0
113.278294271 10.0
113.330815402 9.0
113.383336533 10.0
113.435857664 20.0
113.488378794 7.0
113.540899925 13.0
113.593421056 11.0
113.645942186 8.0
113.698463317 7.0
113.750984448 12.0
113.803505578 7.0
113.856026709 8.0
113.908547840 7.0
113.961068971 13.0
114.013590101 16.0
114.066111232 9.0
114.118632363 12.0
114.171153493 7.0
114.223674624 12.0
114.276195755 10.0
114.328716886 6.0
114.381238016 8.0
114.433759147 12.0
114.486280278 9.0
114.538801408 7.0
114.591322539 10.0
114.643843670 8.0
114.696364800 4.0
114.748885931 6.0
114.801407062 12.0
114.853928193 5.0
114.906449323 14.0
114.958970454 13.0
115.011491585 9.0
115.064012715 7.0
115.116533846 12.0
115.169054977 10.0
115.221576107 10.0
115.274097238 9.0
115.326618369 6.0
115.379139500 9.0
115.431660630 9.0
115.484181761 8.0
115.536702892 17.0
115.589224022 10.0
115.641745153 7.0
115.694266284 13.0
115.746787415 11.0
115.799308545 9.0
115.851829676 6.0
115.904350807 11.0
115.956871937 9.0
116.009393068 11.0
116.061914199 9.0
116.114435329 10.0
116.166956460 7.0
116.219477591 9.0
116.271998722 7.0
116.324519852 9.0
116.377040983 11.0
116.429562114 6.0
116.482083244 8.0
116.534604375 11.0
116.587125506 4.0
116.639646637 15.0
116.692167767 7.0
116.744688898 9.0
116.797210029 11.0
116.849731159 8.0
116.902252290 11.0
116.954773421 17.0
117.007294551 9.0
117.059815682 18.0
117.112336813 15.0
117.164857944 8.0
117.217379074 10.0
117.269900205 7.0
117.322421336 9.0
117.374942466 7.0
117.427463597 10.0
117.479984728 16.0
117.532505858 6.0
117.585026989 8.0
117.637548120 5.0
117.690069251 5.0
117.742590381 10.0
117.795111512 17.0
117.847632643 6.0
117.900153773 13.0
117.952674904 15.0
118.005196035 8.0
118.057717166 11.0
118.110238296 11.0
118.162759427 15.0
118.215280558 17.0
118.267801688 10.0
118.320322819 13.0
118.372843950 8.0
118.425365080 7.0
118.477886211 12.0
118.530407342 11.0
118.582928473 18.0
118.635449603 17.0
118.687970734 16.0
118.740491865 15.0
118.793012995 11.0
118.845534126 15.0
118.898055257 7.0
118.950576387 14.0
119.003097518 18.0
119.055618649 34.0
119.108139780 18.0
119.160660910 35.0
119.213182041 41.0
119.265703172 52.0
119.318224302 71.0
119.370745433 92.0
119.423266564 122.0
119.475787695 152.0
119.528308825 134.0
119.580829956 97.0
119.633351087 77.0
119.685872217 71.0
119.738393348 39.0
119.790914479 32.0
119.843435609 26.0
119.895956740 21.0
119.948477871 19.0
120.000999002 13.0
120.053520132 19.0
120.106041263 16.0
120.158562394 11.0
120.211083524 12.0
120.263604655 12.0
120.316125786 13.0
120.368646917 4.0
120.421168047 16.0
120.473689178 13.0
120.526210309 13.0
120.578731439 6.0
120.631252570 11.0
120.683773701 12.0
120.736294831 9.0
120.788815962 11.0
120.841337093 9.0
120.893858224 14.0
120.946379354 15.0
120.998900485 9.0
121.051421616 17.0
121.103942746 8.0
121.156463877 14.0
121.208985008 14.0
121.261506138 14.0
121.314027269 8.0
121.366548400 14.0
121.419069531 9.0
121.471590661 7.0
121.524111792 6.0
121.576632923 8.0
121.629154053 9.0
121.681675184 17.0
121.734196315 10.0
121.786717446 13.0
121.839238576 12.0
121.891759707 9.0
121.944280838 4.0
121.996801968 20.0
122.049323099 14.0
122.101844230 10.0
122.154365360 5.0
122.206886491 9.0
122.259407622 16.0
122.311928753 14.0
122.364449883 18.0
122.416971014 8.0
122.469492145 9.0
122.522013275 23.0
122.574534406 13.0
122.627055537 9.0
122.679576668 12.0
122.732097798 14.0
122.784618929 9.0
122.837140060 14.0
122.889661190 12.0
122.942182321 11.0
122.994703452 12.0
123.047224582 11.0
123.099745713 12.0
123.152266844 9.0
123.204787975 18.0
123.257309105 4.0
123.309830236 12.0
123.362351367 7.0
123.414872497 8.0
123.467393628 11.0
123.519914759 9.0
123.572435889 10.0
123.624957020 17.0
123.677478151 3.0
123.729999282 15.0
123.782520412 12.0
123.835041543 10.0
123.887562674 8.0
123.940083804 8.0
123.992604935 8.0
124.045126066 12.0
124.097647197 12.0
124.150168327 10.0
124.202689458 9.0
124.255210589 12.0
124.307731719 5.0
124.360252850 5.0
124.412773981 9.0
124.465295111 13.0
124.517816242 12.0
124.570337373 10.0
124.622858504 9.0
124.675379634 12.0
124.727900765 11.0
124.780421896 13.0
124.832943026 7.0
124.885464157 14.0
124.937985288 7.0
124.990506419 11.0
125.043027549 10.0
125.095548680 8.0
125.148069811 7.0
125.200590941 16.0
125.253112072 10.0
125.305633203 9.0
125.358154333 3.0
125.410675464 7.0
125.463196595 10.0
125.515717726 10.0
125.568238856 8.0
125.620759987 6.0
125.673281118 11.0
125.725802248 7.0
125.778323379 12.0
125.830844510 14.0
125.883365640 11.0
125.935886771 12.0
125.988407902 15.0
126.040929033 11.0
126.093450163 19.0
126.145971294 13.0
126.198492425 9.0
126.251013555 17.0
126.303534686 17.0
126.356055817 10.0
126.408576948 15.0
126.461098078 9.0
126.513619209 11.0
126.566140340 13.0
126.618661470 16.0
126.671182601 11.0
126.723703732 11.0
126.776224862 14.0
126.828745993 17.0
126.881267124 12.0
126.933788255 17.0
126.986309385 19.0
127.038830516 23.0
127.091351647 26.0
127.143872777 17.0
127.196393908 22.0
127.248915039 25.0
127.301436170 11.0
127.353957300 18.0
127.406478431 9.0
127.458999562 20.0
127.511520692 17.0
127.564041823 11.0
127.616562954 10.0
127.669084084 16.0
127.721605215 15.0
127.774126346 19.0
127.826647477 14.0
127.879168607 13.0
127.931689738 8.0
127.984210869 10.0
128.036731999 10.0
128.089253130 9.0
128.141774261 10.0
128.194295391 14.0
128.246816522 9.0
128.299337653 14.0
128.351858784 6.0
128.404379914 8.0
128.456901045 7.0
128.509422176 8.0
128.561943306 8.0
128.614464437 10.0
128.666985568 18.0
128.719506699 10.0
128.772027829 14.0
128.824548960 11.0
128.877070091 13.0
128.929591221 13.0
128.982112352 17.0
129.034633483 6.0
129.087154613 15.0
129.139675744 23.0
129.192196875 14.0
129.244718006 24.0
129.297239136 23.0
129.349760267 18.0
129.402281398 34.0
129.454802528 21.0
129.507323659 28.0
129.559844790 36.0
129.612365921 42.0
129.664887051 64.0
129.717408182 64.0
129.769929313 76.0
129.822450443 92.0
129.874971574 90.0
129.927492705 74.0
129.980013835 69.0
130.032534966 72.0
130.085056097 48.0
130.137577228 36.0
130.190098358 43.0
130.242619489 38.0
130.295140620 25.0
130.347661750 26.0
130.400182881 17.0
130.452704012 19.0
130.505225142 15.0
130.557746273 6.0
130.610267404 15.0
130.662788535 18.0
130.715309665 15.0
130.767830796 12.0
130.820351927 9.0
130.872873057 14.0
130.925394188 20.0
130.977915319 4.0
131.030436450 12.0
131.082957580 18.0
131.135478711 6.0
131.187999842 13.0
131.240520972 5.0
131.293042103 7.0
131.345563234 13.0
131.398084364 9.0
131.450605495 18.0
131.503126626 7.0
131.555647757 11.0
131.608168887 14.0
131.660690018 11.0
131.713211149 5.0
131.765732279 11.0
131.818253410 12.0
131.870774541 12.0
131.923295672 12.0
131.975816802 12.0
132.028337933 6.0
132.080859064 10.0
132.133380194 7.0
132.185901325 12.0
132.238422456 4.0
132.290943586 7.0
132.343464717 11.0
132.395985848 9.0
132.448506979 11.0
132.501028109 9.0
132.553549240 9.0
132.606070371 10.0
132.658591501 14.0
132.711112632 2.0
132.763633763 7.0
132.816154893 11.0
132.868676024 10.0
132.921197155 16.0
132.973718286 12.0
133.026239416 11.0
133.078760547 12.0
133.131281678 10.0
133.183802808 9.0
133.236323939 10.0
133.288845070 9.0
133.341366201 9.0
133.393887331 13.0
133.446408462 7.0
133.498929593 7.0
133.551450723 8.0
133.603971854 9.0
133.656492985 14.0
133.709014115 4.0
133.761535246 11.0
133.814056377 10.0
133.866577508 13.0
133.919098638 9.0
133.971619769 13.0
134.024140900 6.0
134.076662030 9.0
134.129183161 6.0
134.181704292 10.0
134.234225423 9.0
134.286746553 7.0
134.339267684 13.0
134.391788815 4.0
134.444309945 12.0
134.496831076 11.0
134.549352207 9.0
134.601873337 10.0
134.654394468 4.0
134.706915599 7.0
134.759436730 7.0
134.811957860 12.0
134.864478991 11.0
134.917000122 14.0
134.969521252 13.0
135.022042383 13.0
135.074563514 6.0
135.127084644 9.0
135.179605775 13.0
135.232126906 14.0
135.284648037 11.0
135.337169167 9.0
135.389690298 7.0
135.442211429 5.0
135.494732559 8.0
135.547253690 13.0
135.599774821 12.0
135.652295952 3.0
135.704817082 6.0
135.757338213 13.0
135.809859344 13.0
135.862380474 9.0
135.914901605 9.0
135.967422736 8.0
136.019943866 9.0
136.072464997 7.0
136.124986128 8.0
136.177507259 9.0
136.230028389 8.0
136.282549520 13.0
136.335070651 13.0
136.387591781 15.0
136.440112912 8.0
136.492634043 8.0
136.545155174 13.0
136.597676304 12.0
136.650197435 9.0
136.702718566 7.0
136.755239696 14.0
136.807760827 6.0
136.860281958 11.0
136.912803088 14.0
136.965324219 10.0
137.017845350 9.0
137.070366481 17.0
137.122887611 8.0
137.175408742 12.0
137.227929873 15.0
137.280451003 8.0
137.332972134 6.0
137.385493265 8.0
137.438014395 9.0
137.490535526 9.0
137.543056657 8.0
137.595577788 13.0
137.648098918 13.0
137.700620049 14.0
137.753141180 16.0
137.805662310 14.0
137.858183441 10.0
137.910704572 12.0
137.963225703 7.0
138.015746833 8.0
138.068267964 19.0
138.120789095 7.0
138.173310225 16.0
138.225831356 6.0
138.278352487 13.0
138.330873617 9.0
138.383394748 9.0
138.435915879 9.0
138.488437010 9.0
138.540958140 10.0
138.593479271 18.0
138.646000402 11.0
138.698521532 7.0
138.751042663 12.0
138.803563794 12.0
138.856084925 7.0
138.908606055 14.0
138.961127186 5.0
139.013648317 7.0
139.066169447 13.0
139.118690578 6.0
139.171211709 8.0
139.223732839 8.0
139.276253970 9.0
139.328775101 7.0
139.381296232 7.0
139.433817362 17.0
139.486338493 11.0
139.538859624 8.0
139.591380754 13.0
139.643901885 5.0
139.696423016 10.0
139.748944146 9.0
139.801465277 14.0
139.853986408 9.0
139.906507539 18.0
139.959028669 12.0
140.011549800 9.0
