2.091060570 53.0
2.143581701 48.0
2.196102831 40.0
2.248623962 51.0
2.301145093 67.0
2.353666224 59.0
2.406187354 48.0
2.458708485 57.0
2.511229616 45.0
2.563750746 52.0
2.616271877 44.0
2.668793008 59.0
2.721314138 63.0
2.773835269 71.0
2.826356400 64.0
2.878877531 64.0
2.931398661 63.0
2.983919792 61.0
3.036440923 66.0
3.088962053 61.0
3.141483184 54.0
3.194004315 66.0
3.246525445 72.0
3.299046576 61.0
3.351567707 66.0
3.404088838 63.0
3.456609968 89.0
3.509131099 61.0
3.561652230 64.0
3.614173360 57.0
3.666694491 82.0
3.719215622 64.0
3.771736753 77.0
3.824257883 78.0
3.876779014 76.0
3.929300145 62.0
3.981821275 60.0
4.034342406 61.0
4.086863537 58.0
4.139384667 84.0
4.191905798 69.0
4.244426929 62.0
4.296948060 76.0
4.349469190 70.0
4.401990321 99.0
4.454511452 85.0
4.507032582 76.0
4.559553713 76.0
4.612074844 76.0
4.664595975 58.0
4.717117105 81.0
4.769638236 88.0
4.822159367 80.0
4.874680497 93.0
4.927201628 90.0
4.979722759 79.0
5.032243889 81.0
5.084765020 79.0
5.137286151 78.0
5.189807282 78.0
5.242328412 103.0
5.294849543 84.0
5.347370674 96.0
5.399891804 95.0
5.452412935 100.0
5.504934066 84.0
5.557455196 78.0
5.609976327 93.0
5.662497458 90.0
5.715018589 85.0
5.767539719 112.0
5.820060850 94.0
5.872581981 90.0
5.925103111 105.0
5.977624242 96.0
6.030145373 94.0
6.082666504 90.0
6.135187634 89.0
6.187708765 93.0
6.240229896 99.0
6.292751026 102.0
6.345272157 94.0
6.397793288 105.0
6.450314418 114.0
6.502835549 89.0
6.555356680 107.0
6.607877811 78.0
6.660398941 97.0
6.712920072 111.0
6.765441203 105.0
6.817962333 107.0
6.870483464 97.0
6.923004595 119.0
6.975525726 105.0
7.028046856 107.0
7.080567987 116.0
7.133089118 97.0
7.185610248 104.0
7.238131379 112.0
7.290652510 124.0
7.343173640 108.0
7.395694771 89.0
7.448215902 118.0
7.500737033 102.0
7.553258163 103.0
7.605779294 99.0
7.658300425 112.0
7.710821555 133.0
7.763342686 117.0
7.815863817 107.0
7.868384947 118.0
7.920906078 131.0
7.973427209 134.0
8.025948340 120.0
8.078469470 136.0
8.130990601 146.0
8.183511732 119.0
8.236032862 126.0
8.288553993 110.0
8.341075124 124.0
8.393596255 131.0
8.446117385 105.0
8.498638516 97.0
8.551159647 128.0
8.603680777 138.0
8.656201908 134.0
8.708723039 117.0
8.761244169 129.0
8.813765300 143.0
8.866286431 117.0
8.918807562 126.0
8.971328692 121.0
9.023849823 108.0
9.076370954 138.0
9.128892084 132.0
9.181413215 139.0
9.233934346 128.0
9.286455477 143.0
9.338976607 126.0
9.391497738 125.0
9.444018869 131.0
9.496539999 149.0
9.549061130 117.0
9.601582261 134.0
9.654103391 137.0
9.706624522 138.0
9.759145653 131.0
9.811666784 144.0
9.864187914 129.0
9.916709045 136.0
9.969230176 125.0
10.021751306 144.0
10.074272437 162.0
10.126793568 143.0
10.179314698 137.0
10.231835829 147.0
10.284356960 151.0
10.336878091 159.0
10.389399221 168.0
10.441920352 201.0
10.494441483 223.0
10.546962613 255.0
10.599483744 299.0
10.652004875 335.0
10.704526006 326.0
10.757047136 245.0
10.809568267 232.0
10.862089398 207.0
10.914610528 221.0
10.967131659 236.0
11.019652790 275.0
11.072173920 350.0
11.124695051 388.0
11.177216182 559.0
11.229737313 704.0
11.282258443 1016.0
11.334779574 1149.0
11.387300705 956.0
11.439821835 705.0
11.492342966 452.0
11.544864097 304.0
11.597385228 283.0
11.649906358 221.0
11.702427489 232.0
11.754948620 225.0
11.807469750 246.0
11.859990881 211.0
11.912512012 219.0
11.965033142 195.0
12.017554273 224.0
12.070075404 247.0
12.122596535 253.0
12.175117665 251.0
12.227638796 258.0
12.280159927 275.0
12.332681057 334.0
12.385202188 391.0
12.437723319 599.0
12.490244449 931.0
12.542765580 881.0
12.595286711 484.0
12.647807842 230.0
12.700328972 184.0
12.752850103 159.0
12.805371234 168.0
12.857892364 177.0
12.910413495 179.0
12.962934626 192.0
13.015455757 191.0
13.067976887 202.0
13.120498018 188.0
13.173019149 175.0
13.225540279 200.0
13.278061410 190.0
13.330582541 178.0
13.383103671 197.0
13.435624802 211.0
13.488145933 204.0
13.540667064 229.0
13.593188194 197.0
13.645709325 236.0
13.698230456 220.0
13.750751586 281.0
13.803272717 268.0
13.855793848 286.0
13.908314979 282.0
13.960836109 297.0
14.013357240 337.0
14.065878371 366.0
14.118399501 448.0
14.170920632 547.0
14.223441763 739.0
14.275962893 963.0
14.328484024 1213.0
14.381005155 1185.0
14.433526286 941.0
14.486047416 590.0
14.538568547 424.0
14.591089678 433.0
14.643610808 391.0
14.696131939 340.0
14.748653070 301.0
14.801174200 332.0
14.853695331 362.0
14.906216462 342.0
14.958737593 355.0
15.011258723 338.0
15.063779854 378.0
15.116300985 320.0
15.168822115 356.0
15.221343246 363.0
15.273864377 330.0
15.326385508 332.0
15.378906638 331.0
15.431427769 260.0
15.483948900 310.0
15.536470030 329.0
15.588991161 279.0
15.641512292 297.0
15.694033422 287.0
15.746554553 314.0
15.799075684 319.0
15.851596815 323.0
15.904117945 312.0
15.956639076 318.0
16.009160207 316.0
16.061681337 324.0
16.114202468 329.0
16.166723599 370.0
16.219244730 496.0
16.271765860 565.0
16.324286991 729.0
16.376808122 966.0
16.429329252 941.0
16.481850383 578.0
16.534371514 314.0
16.586892644 293.0
16.639413775 294.0
16.691934906 276.0
16.744456037 284.0
16.796977167 277.0
16.849498298 273.0
16.902019429 262.0
16.954540559 286.0
17.007061690 309.0
17.059582821 368.0
17.112103951 360.0
17.164625082 284.0
17.217146213 288.0
17.269667344 270.0
17.322188474 282.0
17.374709605 309.0
17.427230736 330.0
17.479751866 399.0
17.532272997 514.0
17.584794128 514.0
17.637315259 485.0
17.689836389 349.0
17.742357520 278.0
17.794878651 235.0
17.847399781 215.0
17.899920912 203.0
17.952442043 194.0
18.004963173 195.0
18.057484304 176.0
18.110005435 200.0
18.162526566 206.0
18.215047696 196.0
18.267568827 200.0
18.320089958 189.0
18.372611088 207.0
18.425132219 211.0
18.477653350 230.0
18.530174481 248.0
18.582695611 246.0
18.635216742 262.0
18.687737873 268.0
18.740259003 239.0
18.792780134 246.0
18.845301265 272.0
18.897822395 355.0
18.950343526 460.0
19.002864657 679.0
19.055385788 1097.0
19.107906918 1761.0
19.160428049 1875.0
19.212949180 1288.0
19.265470310 761.0
19.317991441 543.0
19.370512572 488.0
19.423033702 512.0
19.475554833 817.0
19.528075964 1303.0
19.580597095 1688.0
19.633118225 1165.0
19.685639356 520.0
19.738160487 418.0
19.790681617 474.0
19.843202748 743.0
19.895723879 1440.0
19.948245010 2791.0
20.000766140 3492.0
20.053287271 2097.0
20.105808402 858.0
20.158329532 401.0
20.210850663 357.0
20.263371794 355.0
20.315892924 313.0
20.368414055 306.0
20.420935186 266.0
20.473456317 267.0
20.525977447 274.0
20.578498578 285.0
20.631019709 332.0
20.683540839 334.0
20.736061970 419.0
20.788583101 604.0
20.841104232 698.0
20.893625362 590.0
20.946146493 434.0
20.998667624 423.0
21.051188754 476.0
21.103709885 577.0
21.156231016 852.0
21.208752146 1108.0
21.261273277 1111.0
21.313794408 708.0
21.366315539 451.0
21.418836669 374.0
21.471357800 389.0
21.523878931 386.0
21.576400061 394.0
21.628921192 370.0
21.681442323 419.0
21.733963453 450.0
21.786484584 466.0
21.839005715 481.0
21.891526846 490.0
21.944047976 537.0
21.996569107 480.0
22.049090238 571.0
22.101611368 572.0
22.154132499 565.0
22.206653630 648.0
22.259174761 578.0
22.311695891 549.0
22.364217022 619.0
22.416738153 604.0
22.469259283 578.0
22.521780414 601.0
22.574301545 664.0
22.626822675 697.0
22.679343806 716.0
22.731864937 895.0
22.784386068 1071.0
22.836907198 1220.0
22.889428329 1149.0
22.941949460 1009.0
22.994470590 714.0
23.046991721 606.0
23.099512852 521.0
23.152033983 590.0
23.204555113 490.0
23.257076244 464.0
23.309597375 442.0
23.362118505 386.0
23.414639636 398.0
23.467160767 352.0
23.519681897 365.0
23.572203028 374.0
23.624724159 394.0
23.677245290 429.0
23.729766420 634.0
23.782287551 726.0
23.834808682 525.0
23.887329812 325.0
23.939850943 288.0
23.992372074 247.0
24.044893204 263.0
24.097414335 196.0
24.149935466 192.0
24.202456597 238.0
24.254977727 194.0
24.307498858 189.0
24.360019989 209.0
24.412541119 205.0
24.465062250 213.0
24.517583381 231.0
24.570104512 191.0
24.622625642 166.0
24.675146773 176.0
24.727667904 198.0
24.780189034 214.0
24.832710165 148.0
24.885231296 167.0
24.937752426 159.0
24.990273557 165.0
25.042794688 217.0
25.095315819 198.0
25.147836949 218.0
25.200358080 240.0
25.252879211 232.0
25.305400341 232.0
25.357921472 241.0
25.410442603 297.0
25.462963733 354.0
25.515484864 398.0
25.568005995 443.0
25.620527126 440.0
25.673048256 368.0
25.725569387 294.0
25.778090518 254.0
25.830611648 215.0
25.883132779 262.0
25.935653910 302.0
25.988175041 364.0
26.040696171 439.0
26.093217302 613.0
26.145738433 706.0
26.198259563 667.0
26.250780694 485.0
26.303301825 293.0
26.355822955 222.0
26.408344086 203.0
26.460865217 175.0
26.513386348 183.0
26.565907478 193.0
26.618428609 129.0
26.670949740 142.0
26.723470870 145.0
26.775992001 133.0
26.828513132 162.0
26.881034263 146.0
26.933555393 151.0
26.986076524 160.0
27.038597655 170.0
27.091118785 115.0
27.143639916 140.0
27.196161047 117.0
27.248682177 129.0
27.301203308 123.0
27.353724439 172.0
27.406245570 210.0
27.458766700 269.0
27.511287831 275.0
27.563808962 177.0
27.616330092 135.0
27.668851223 121.0
27.721372354 120.0
27.773893484 131.0
27.826414615 110.0
27.878935746 116.0
27.931456877 118.0
27.983978007 125.0
28.036499138 132.0
28.089020269 175.0
28.141541399 182.0
28.194062530 194.0
28.246583661 168.0
28.299104792 150.0
28.351625922 147.0
28.404147053 151.0
28.456668184 184.0
28.509189314 205.0
28.561710445 191.0
28.614231576 138.0
28.666752706 119.0
28.719273837 134.0
28.771794968 116.0
28.824316099 137.0
28.876837229 158.0
28.929358360 166.0
28.981879491 222.0
29.034400621 187.0
29.086921752 129.0
29.139442883 128.0
29.191964014 139.0
29.244485144 133.0
29.297006275 117.0
29.349527406 133.0
29.402048536 119.0
29.454569667 112.0
29.507090798 103.0
29.559611928 105.0
29.612133059 119.0
29.664654190 123.0
29.717175321 111.0
29.769696451 141.0
29.822217582 154.0
29.874738713 140.0
29.927259843 145.0
29.979780974 154.0
30.032302105 185.0
30.084823235 194.0
30.137344366 252.0
30.189865497 290.0
30.242386628 329.0
30.294907758 374.0
30.347428889 443.0
30.399950020 406.0
30.452471150 303.0
30.504992281 274.0
30.557513412 200.0
30.610034543 186.0
30.662555673 162.0
30.715076804 157.0
30.767597935 116.0
30.820119065 134.0
30.872640196 126.0
30.925161327 129.0
30.977682457 173.0
31.030203588 221.0
31.082724719 208.0
31.135245850 142.0
31.187766980 136.0
31.240288111 121.0
31.292809242 117.0
31.345330372 138.0
31.397851503 144.0
31.450372634 197.0
31.502893765 187.0
31.555414895 132.0
31.607936026 149.0
31.660457157 165.0
31.712978287 162.0
31.765499418 158.0
31.818020549 124.0
31.870541679 103.0
31.923062810 100.0
31.975583941 85.0
32.028105072 89.0
32.080626202 91.0
32.133147333 95.0
32.185668464 75.0
32.238189594 95.0
32.290710725 115.0
32.343231856 89.0
32.395752986 113.0
32.448274117 114.0
32.500795248 110.0
32.553316379 103.0
32.605837509 70.0
32.658358640 98.0
32.710879771 142.0
32.763400901 114.0
32.815922032 122.0
32.868443163 152.0
32.920964294 137.0
32.973485424 124.0
33.026006555 152.0
33.078527686 144.0
33.131048816 171.0
33.183569947 222.0
33.236091078 166.0
33.288612208 128.0
33.341133339 88.0
33.393654470 96.0
33.446175601 100.0
33.498696731 91.0
33.551217862 126.0
33.603738993 96.0
33.656260123 129.0
33.708781254 102.0
33.761302385 125.0
33.813823516 118.0
33.866344646 106.0
33.918865777 118.0
33.971386908 133.0
34.023908038 119.0
34.076429169 125.0
34.128950300 129.0
34.181471430 122.0
34.233992561 120.0
34.286513692 109.0
34.339034823 139.0
34.391555953 126.0
34.444077084 120.0
34.496598215 153.0
34.549119345 233.0
34.601640476 213.0
34.654161607 171.0
34.706682737 141.0
34.759203868 138.0
34.811724999 147.0
34.864246130 174.0
34.916767260 222.0
34.969288391 234.0
35.021809522 199.0
35.074330652 132.0
35.126851783 140.0
35.179372914 122.0
35.231894045 169.0
35.284415175 152.0
35.336936306 168.0
35.389457437 150.0
35.441978567 129.0
35.494499698 156.0
35.547020829 144.0
35.599541959 180.0
35.652063090 159.0
35.704584221 172.0
35.757105352 119.0
35.809626482 132.0
35.862147613 113.0
35.914668744 113.0
35.967189874 102.0
36.019711005 112.0
36.072232136 145.0
36.124753267 145.0
36.177274397 199.0
36.229795528 213.0
36.282316659 202.0
36.334837789 159.0
36.387358920 121.0
36.439880051 103.0
36.492401181 101.0
36.544922312 84.0
36.597443443 80.0
36.649964574 95.0
36.702485704 102.0
36.755006835 120.0
36.807527966 138.0
36.860049096 206.0
36.912570227 266.0
36.965091358 235.0
37.017612488 215.0
37.070133619 138.0
37.122654750 127.0
37.175175881 98.0
37.227697011 114.0
37.280218142 101.0
37.332739273 119.0
37.385260403 122.0
37.437781534 140.0
37.490302665 234.0
37.542823796 375.0
37.595344926 386.0
37.647866057 224.0
37.700387188 170.0
37.752908318 201.0
37.805429449 218.0
37.857950580 159.0
37.910471710 119.0
37.962992841 115.0
38.015513972 132.0
38.068035103 144.0
38.120556233 181.0
38.173077364 193.0
38.225598495 260.0
38.278119625 251.0
38.330640756 175.0
38.383161887 119.0
38.435683018 128.0
38.488204148 135.0
38.540725279 191.0
38.593246410 216.0
38.645767540 179.0
38.698288671 131.0
38.750809802 117.0
38.803330932 158.0
38.855852063 134.0
38.908373194 125.0
38.960894325 114.0
39.013415455 101.0
39.065936586 110.0
39.118457717 89.0
39.170978847 89.0
39.223499978 98.0
39.276021109 85.0
39.328542239 112.0
39.381063370 150.0
39.433584501 164.0
39.486105632 110.0
39.538626762 95.0
39.591147893 100.0
39.643669024 86.0
39.696190154 101.0
39.748711285 113.0
39.801232416 153.0
39.853753547 147.0
39.906274677 149.0
39.958795808 147.0
40.011316939 124.0
40.063838069 117.0
40.116359200 94.0
40.168880331 81.0
40.221401461 81.0
40.273922592 82.0
40.326443723 88.0
40.378964854 60.0
40.431485984 78.0
40.484007115 89.0
40.536528246 98.0
40.589049376 117.0
40.641570507 170.0
40.694091638 154.0
40.746612769 132.0
40.799133899 84.0
40.851655030 90.0
40.904176161 84.0
40.956697291 84.0
41.009218422 78.0
41.061739553 81.0
41.114260683 88.0
41.166781814 99.0
41.219302945 80.0
41.271824076 87.0
41.324345206 88.0
41.376866337 85.0
41.429387468 70.0
41.481908598 69.0
41.534429729 84.0
41.586950860 75.0
41.639471990 78.0
41.691993121 88.0
41.744514252 110.0
41.797035383 114.0
41.849556513 116.0
41.902077644 96.0
41.954598775 80.0
42.007119905 83.0
42.059641036 92.0
42.112162167 94.0
42.164683298 90.0
42.217204428 107.0
42.269725559 92.0
42.322246690 106.0
42.374767820 124.0
42.427288951 163.0
42.479810082 98.0
42.532331212 81.0
42.584852343 86.0
42.637373474 76.0
42.689894605 102.0
42.742415735 111.0
42.794936866 105.0
42.847457997 97.0
42.899979127 105.0
42.952500258 109.0
43.005021389 139.0
43.057542520 137.0
43.110063650 133.0
43.162584781 122.0
43.215105912 89.0
43.267627042 89.0
43.320148173 89.0
43.372669304 77.0
43.425190434 79.0
43.477711565 87.0
43.530232696 84.0
43.582753827 96.0
43.635274957 77.0
43.687796088 75.0
43.740317219 72.0
43.792838349 72.0
43.845359480 66.0
43.897880611 72.0
43.950401741 82.0
44.002922872 75.0
44.055444003 77.0
44.107965134 100.0
44.160486264 95.0
44.213007395 86.0
44.265528526 89.0
44.318049656 94.0
44.370570787 103.0
44.423091918 78.0
44.475613049 62.0
44.528134179 82.0
44.580655310 71.0
44.633176441 73.0
44.685697571 81.0
44.738218702 102.0
44.790739833 98.0
44.843260963 91.0
44.895782094 71.0
44.948303225 92.0
45.000824356 78.0
45.053345486 104.0
45.105866617 89.0
45.158387748 77.0
45.210908878 91.0
45.263430009 85.0
45.315951140 111.0
45.368472271 79.0
45.420993401 90.0
45.473514532 106.0
45.526035663 95.0
45.578556793 79.0
45.631077924 89.0
45.683599055 107.0
45.736120185 121.0
45.788641316 105.0
45.841162447 118.0
45.893683578 91.0
45.946204708 84.0
45.998725839 77.0
46.051246970 81.0
46.103768100 59.0
46.156289231 75.0
46.208810362 73.0
46.261331492 83.0
46.313852623 90.0
46.366373754 75.0
46.418894885 74.0
46.471416015 76.0
46.523937146 77.0
46.576458277 68.0
46.628979407 79.0
46.681500538 71.0
46.734021669 73.0
46.786542800 79.0
46.839063930 83.0
46.891585061 74.0
46.944106192 77.0
46.996627322 62.0
47.049148453 67.0
47.101669584 95.0
47.154190714 93.0
47.206711845 93.0
47.259232976 94.0
47.311754107 103.0
47.364275237 106.0
47.416796368 108.0
47.469317499 76.0
47.521838629 71.0
47.574359760 90.0
47.626880891 87.0
47.679402022 96.0
47.731923152 82.0
47.784444283 85.0
47.836965414 105.0
47.889486544 104.0
47.942007675 133.0
47.994528806 126.0
48.047049936 85.0
48.099571067 68.0
48.152092198 51.0
48.204613329 67.0
48.257134459 62.0
48.309655590 57.0
48.362176721 64.0
48.414697851 75.0
48.467218982 59.0
48.519740113 67.0
48.572261243 69.0
48.624782374 68.0
48.677303505 83.0
48.729824636 90.0
48.782345766 68.0
48.834866897 75.0
48.887388028 74.0
48.939909158 88.0
48.992430289 81.0
49.044951420 90.0
49.097472551 59.0
49.149993681 70.0
49.202514812 52.0
49.255035943 76.0
49.307557073 49.0
49.360078204 52.0
49.412599335 77.0
49.465120465 108.0
49.517641596 74.0
49.570162727 71.0
49.622683858 70.0
49.675204988 80.0
49.727726119 70.0
49.780247250 90.0
49.832768380 59.0
49.885289511 64.0
49.937810642 50.0
49.990331772 67.0
50.042852903 51.0
50.095374034 77.0
50.147895165 70.0
50.200416295 92.0
50.252937426 90.0
50.305458557 97.0
50.357979687 83.0
50.410500818 81.0
50.463021949 65.0
50.515543080 68.0
50.568064210 73.0
50.620585341 60.0
50.673106472 65.0
50.725627602 75.0
50.778148733 52.0
50.830669864 78.0
50.883190994 65.0
50.935712125 47.0
50.988233256 61.0
51.040754387 42.0
51.093275517 48.0
51.145796648 31.0
51.198317779 50.0
51.250838909 38.0
51.303360040 53.0
51.355881171 56.0
51.408402302 54.0
51.460923432 50.0
51.513444563 57.0
51.565965694 37.0
51.618486824 54.0
51.671007955 42.0
51.723529086 56.0
51.776050216 53.0
51.828571347 70.0
51.881092478 78.0
51.933613609 78.0
51.986134739 99.0
52.038655870 75.0
52.091177001 70.0
52.143698131 52.0
52.196219262 54.0
52.248740393 50.0
52.301261523 41.0
52.353782654 59.0
52.406303785 58.0
52.458824916 55.0
52.511346046 68.0
52.563867177 86.0
52.616388308 59.0
52.668909438 59.0
52.721430569 60.0
52.773951700 58.0
52.826472831 54.0
52.878993961 45.0
52.931515092 52.0
52.984036223 43.0
53.036557353 39.0
53.089078484 43.0
53.141599615 45.0
53.194120745 40.0
53.246641876 42.0
53.299163007 50.0
53.351684138 54.0
53.404205268 42.0
53.456726399 55.0
53.509247530 59.0
53.561768660 52.0
53.614289791 40.0
53.666810922 50.0
53.719332053 48.0
53.771853183 40.0
53.824374314 66.0
53.876895445 56.0
53.929416575 44.0
53.981937706 57.0
54.034458837 62.0
54.086979967 64.0
54.139501098 50.0
54.192022229 40.0
54.244543360 33.0
54.297064490 48.0
54.349585621 37.0
54.402106752 42.0
54.454627882 36.0
54.507149013 49.0
54.559670144 38.0
54.612191274 37.0
54.664712405 61.0
54.717233536 66.0
54.769754667 45.0
54.822275797 54.0
54.874796928 46.0
54.927318059 51.0
54.979839189 38.0
55.032360320 47.0
55.084881451 49.0
55.137402582 53.0
55.189923712 43.0
55.242444843 40.0
55.294965974 40.0
55.347487104 57.0
55.400008235 42.0
55.452529366 53.0
55.505050496 53.0
55.557571627 53.0
55.610092758 36.0
55.662613889 38.0
55.715135019 41.0
55.767656150 35.0
55.820177281 42.0
55.872698411 36.0
55.925219542 57.0
55.977740673 54.0
56.030261804 40.0
56.082782934 40.0
56.135304065 46.0
56.187825196 49.0
56.240346326 55.0
56.292867457 49.0
56.345388588 58.0
56.397909718 42.0
56.450430849 38.0
56.502951980 47.0
56.555473111 51.0
56.607994241 38.0
56.660515372 57.0
56.713036503 54.0
56.765557633 49.0
56.818078764 51.0
56.870599895 41.0
56.923121025 48.0
56.975642156 56.0
57.028163287 41.0
57.080684418 37.0
57.133205548 48.0
57.185726679 39.0
57.238247810 35.0
57.290768940 39.0
57.343290071 53.0
57.395811202 46.0
57.448332333 48.0
57.500853463 60.0
57.553374594 57.0
57.605895725 41.0
57.658416855 43.0
57.710937986 42.0
57.763459117 45.0
57.815980247 40.0
57.868501378 49.0
57.921022509 43.0
57.973543640 42.0
58.026064770 30.0
58.078585901 51.0
58.131107032 58.0
58.183628162 50.0
58.236149293 53.0
58.288670424 47.0
58.341191555 54.0
58.393712685 46.0
58.446233816 41.0
58.498754947 26.0
58.551276077 31.0
58.603797208 49.0
58.656318339 64.0
58.708839469 44.0
58.761360600 37.0
58.813881731 41.0
58.866402862 44.0
58.918923992 34.0
58.971445123 42.0
59.023966254 40.0
59.076487384 34.0
59.129008515 32.0
59.181529646 44.0
59.234050776 39.0
59.286571907 41.0
59.339093038 37.0
59.391614169 47.0
59.444135299 40.0
59.496656430 50.0
59.549177561 51.0
59.601698691 43.0
59.654219822 27.0
59.706740953 31.0
59.759262084 46.0
59.811783214 40.0
59.864304345 41.0
59.916825476 38.0
59.969346606 29.0
60.021867737 25.0
60.074388868 49.0
60.126909998 33.0
60.179431129 45.0
60.231952260 41.0
60.284473391 32.0
60.336994521 36.0
60.389515652 42.0
60.442036783 35.0
60.494557913 35.0
60.547079044 43.0
60.599600175 45.0
60.652121306 44.0
60.704642436 38.0
60.757163567 37.0
60.809684698 29.0
60.862205828 40.0
60.914726959 41.0
60.967248090 29.0
61.019769220 42.0
61.072290351 24.0
61.124811482 32.0
61.177332613 22.0
61.229853743 36.0
61.282374874 29.0
61.334896005 43.0
61.387417135 36.0
61.439938266 27.0
61.492459397 32.0
61.544980527 35.0
61.597501658 40.0
61.650022789 40.0
61.702543920 26.0
61.755065050 38.0
61.807586181 32.0
61.860107312 36.0
61.912628442 29.0
61.965149573 34.0
62.017670704 27.0
62.070191835 42.0
62.122712965 25.0
62.175234096 30.0
62.227755227 46.0
62.280276357 41.0
62.332797488 29.0
62.385318619 36.0
62.437839749 32.0
62.490360880 27.0
62.542882011 23.0
62.595403142 45.0
62.647924272 22.0
62.700445403 34.0
62.752966534 38.0
62.805487664 34.0
62.858008795 39.0
62.910529926 27.0
62.963051057 30.0
63.015572187 30.0
63.068093318 36.0
63.120614449 25.0
63.173135579 34.0
63.225656710 42.0
63.278177841 28.0
63.330698971 23.0
63.383220102 37.0
63.435741233 50.0
63.488262364 53.0
63.540783494 33.0
63.593304625 32.0
63.645825756 40.0
63.698346886 26.0
63.750868017 20.0
63.803389148 26.0
63.855910278 27.0
63.908431409 31.0
63.960952540 39.0
64.013473671 31.0
64.065994801 40.0
64.118515932 35.0
64.171037063 24.0
64.223558193 39.0
64.276079324 30.0
64.328600455 27.0
64.381121586 30.0
64.433642716 32.0
64.486163847 34.0
64.538684978 33.0
64.591206108 33.0
64.643727239 21.0
64.696248370 35.0
64.748769500 38.0
64.801290631 29.0
64.853811762 48.0
64.906332893 36.0
64.958854023 35.0
65.011375154 37.0
65.063896285 29.0
65.116417415 27.0
65.168938546 35.0
65.221459677 24.0
65.273980808 31.0
65.326501938 30.0
65.379023069 36.0
65.431544200 47.0
65.484065330 30.0
65.536586461 32.0
65.589107592 36.0
65.641628722 40.0
65.694149853 41.0
65.746670984 31.0
65.799192115 30.0
65.851713245 30.0
65.904234376 29.0
65.956755507 36.0
66.009276637 32.0
66.061797768 36.0
66.114318899 30.0
66.166840029 40.0
66.219361160 29.0
66.271882291 27.0
66.324403422 25.0
66.376924552 27.0
66.429445683 31.0
66.481966814 28.0
66.534487944 29.0
66.587009075 36.0
66.639530206 35.0
66.692051337 32.0
66.744572467 30.0
66.797093598 23.0
66.849614729 37.0
66.902135859 41.0
66.954656990 35.0
67.007178121 38.0
67.059699251 25.0
67.112220382 37.0
67.164741513 29.0
67.217262644 30.0
67.269783774 24.0
67.322304905 43.0
67.374826036 38.0
67.427347166 52.0
67.479868297 27.0
67.532389428 29.0
67.584910559 36.0
67.637431689 26.0
67.689952820 36.0
67.742473951 23.0
67.794995081 27.0
67.847516212 27.0
67.900037343 29.0
67.952558473 28.0
68.005079604 42.0
68.057600735 27.0
68.110121866 34.0
68.162642996 31.0
68.215164127 23.0
68.267685258 38.0
68.320206388 35.0
68.372727519 29.0
68.425248650 28.0
68.477769780 27.0
68.530290911 34.0
68.582812042 25.0
68.635333173 24.0
68.687854303 31.0
68.740375434 31.0
68.792896565 17.0
68.845417695 26.0
68.897938826 33.0
68.950459957 29.0
69.002981088 29.0
69.055502218 28.0
69.108023349 26.0
69.160544480 29.0
69.213065610 26.0
69.265586741 28.0
69.318107872 30.0
69.370629002 25.0
69.423150133 21.0
69.475671264 37.0
69.528192395 33.0
69.580713525 35.0
69.633234656 35.0
69.685755787 25.0
69.738276917 36.0
69.790798048 29.0
69.843319179 35.0
69.895840310 29.0
69.948361440 32.0
70.000882571 31.0
70.053403702 41.0
70.105924832 27.0
70.158445963 29.0
70.210967094 30.0
70.263488224 37.0
70.316009355 39.0
70.368530486 31.0
70.421051617 27.0
70.473572747 22.0
70.526093878 37.0
70.578615009 30.0
70.631136139 26.0
70.683657270 32.0
70.736178401 20.0
70.788699531 32.0
70.841220662 30.0
70.893741793 35.0
70.946262924 37.0
70.998784054 42.0
71.051305185 37.0
71.103826316 33.0
71.156347446 25.0
71.208868577 34.0
71.261389708 29.0
71.313910839 32.0
71.366431969 21.0
71.418953100 34.0
71.471474231 29.0
71.523995361 40.0
71.576516492 29.0
71.629037623 28.0
71.681558753 25.0
71.734079884 43.0
71.786601015 19.0
71.839122146 40.0
71.891643276 25.0
71.944164407 31.0
71.996685538 32.0
72.049206668 20.0
72.101727799 31.0
72.154248930 28.0
72.206770060 41.0
72.259291191 29.0
72.311812322 24.0
72.364333453 33.0
72.416854583 25.0
72.469375714 36.0
72.521896845 26.0
72.574417975 39.0
72.626939106 28.0
72.679460237 37.0
72.731981368 34.0
72.784502498 29.0
72.837023629 26.0
72.889544760 23.0
72.942065890 30.0
72.994587021 23.0
73.047108152 31.0
73.099629282 42.0
73.152150413 36.0
73.204671544 32.0
73.257192675 31.0
73.309713805 34.0
73.362234936 36.0
73.414756067 25.0
73.467277197 31.0
73.519798328 36.0
73.572319459 35.0
73.624840590 29.0
73.677361720 38.0
73.729882851 26.0
73.782403982 39.0
73.834925112 36.0
73.887446243 22.0
73.939967374 26.0
73.992488504 31.0
74.045009635 25.0
74.097530766 22.0
74.150051897 40.0
74.202573027 25.0
74.255094158 28.0
74.307615289 31.0
74.360136419 32.0
74.412657550 23.0
74.465178681 40.0
74.517699811 38.0
74.570220942 34.0
74.622742073 43.0
74.675263204 25.0
74.727784334 32.0
74.780305465 35.0
74.832826596 25.0
74.885347726 34.0
74.937868857 32.0
74.990389988 29.0
75.042911119 23.0
75.095432249 31.0
75.147953380 24.0
75.200474511 41.0
75.252995641 34.0
75.305516772 27.0
75.358037903 38.0
75.410559033 34.0
75.463080164 34.0
75.515601295 35.0
75.568122426 31.0
75.620643556 28.0
75.673164687 40.0
75.725685818 24.0
75.778206948 28.0
75.830728079 38.0
75.883249210 35.0
75.935770341 33.0
75.988291471 28.0
76.040812602 18.0
76.093333733 29.0
76.145854863 30.0
76.198375994 31.0
76.250897125 40.0
76.303418255 29.0
76.355939386 31.0
76.408460517 19.0
76.460981648 37.0
76.513502778 45.0
76.566023909 34.0
76.618545040 37.0
76.671066170 40.0
76.723587301 31.0
76.776108432 44.0
76.828629562 34.0
76.881150693 31.0
76.933671824 30.0
76.986192955 35.0
77.038714085 28.0
77.091235216 29.0
77.143756347 33.0
77.196277477 30.0
77.248798608 34.0
77.301319739 30.0
77.353840870 45.0
77.406362000 28.0
77.458883131 34.0
77.511404262 23.0
77.563925392 31.0
77.616446523 32.0
77.668967654 35.0
77.721488784 31.0
77.774009915 34.0
77.826531046 35.0
77.879052177 35.0
77.931573307 32.0
77.984094438 33.0
78.036615569 25.0
78.089136699 24.0
78.141657830 35.0
78.194178961 25.0
78.246700092 32.0
78.299221222 41.0
78.351742353 32.0
78.404263484 34.0
78.456784614 28.0
78.509305745 37.0
78.561826876 48.0
78.614348006 26.0
78.666869137 34.0
78.719390268 36.0
78.771911399 31.0
78.824432529 40.0
78.876953660 51.0
78.929474791 37.0
78.981995921 33.0
79.034517052 33.0
79.087038183 34.0
79.139559313 35.0
79.192080444 32.0
79.244601575 26.0
79.297122706 36.0
79.349643836 24.0
79.402164967 28.0
79.454686098 32.0
79.507207228 33.0
79.559728359 26.0
79.612249490 27.0
79.664770621 28.0
79.717291751 35.0
79.769812882 22.0
79.822334013 25.0
79.874855143 31.0
79.927376274 33.0
79.979897405 30.0
80.032418535 38.0
80.084939666 33.0
80.137460797 38.0
80.189981928 29.0
80.242503058 23.0
80.295024189 41.0
80.347545320 32.0
80.400066450 31.0
80.452587581 24.0
80.505108712 29.0
80.557629843 23.0
80.610150973 30.0
80.662672104 23.0
80.715193235 42.0
80.767714365 32.0
80.820235496 32.0
80.872756627 38.0
80.925277757 30.0
80.977798888 29.0
81.030320019 28.0
81.082841150 39.0
81.135362280 33.0
81.187883411 25.0
81.240404542 25.0
81.292925672 29.0
81.345446803 36.0
81.397967934 28.0
81.450489064 25.0
81.503010195 35.0
81.555531326 24.0
81.608052457 28.0
81.660573587 33.0
81.713094718 31.0
81.765615849 26.0
81.818136979 29.0
81.870658110 33.0
81.923179241 29.0
81.975700372 27.0
82.028221502 28.0
82.080742633 34.0
82.133263764 31.0
82.185784894 27.0
82.238306025 28.0
82.290827156 28.0
82.343348286 32.0
82.395869417 35.0
82.448390548 16.0
82.500911679 34.0
82.553432809 22.0
82.605953940 27.0
82.658475071 27.0
82.710996201 29.0
82.763517332 32.0
82.816038463 34.0
82.868559594 26.0
82.921080724 29.0
82.973601855 26.0
83.026122986 27.0
83.078644116 22.0
83.131165247 35.0
83.183686378 30.0
83.236207508 18.0
83.288728639 40.0
83.341249770 33.0
83.393770901 31.0
83.446292031 33.0
83.498813162 36.0
83.551334293 31.0
83.603855423 38.0
83.656376554 32.0
83.708897685 32.0
83.761418815 27.0
83.813939946 29.0
83.866461077 33.0
83.918982208 33.0
83.971503338 27.0
84.024024469 24.0
84.076545600 23.0
84.129066730 33.0
84.181587861 37.0
84.234108992 25.0
84.286630123 27.0
84.339151253 28.0
84.391672384 35.0
84.444193515 22.0
84.496714645 21.0
84.549235776 24.0
84.601756907 26.0
84.654278037 32.0
84.706799168 25.0
84.759320299 25.0
84.811841430 35.0
84.864362560 25.0
84.916883691 42.0
84.969404822 27.0
85.021925952 27.0
85.074447083 30.0
85.126968214 24.0
85.179489345 22.0
85.232010475 25.0
85.284531606 24.0
85.337052737 20.0
85.389573867 21.0
85.442094998 19.0
85.494616129 24.0
85.547137259 23.0
85.599658390 36.0
85.652179521 32.0
85.704700652 30.0
85.757221782 28.0
85.809742913 29.0
85.862264044 30.0
85.914785174 37.0
85.967306305 23.0
86.019827436 34.0
86.072348566 25.0
86.124869697 21.0
86.177390828 27.0
86.229911959 18.0
86.282433089 31.0
86.334954220 29.0
86.387475351 19.0
86.439996481 20.0
86.492517612 16.0
86.545038743 26.0
86.597559874 29.0
86.650081004 25.0
86.702602135 40.0
86.755123266 29.0
86.807644396 19.0
86.860165527 23.0
86.912686658 29.0
86.965207788 21.0
87.017728919 29.0
87.070250050 24.0
87.122771181 22.0
87.175292311 32.0
87.227813442 36.0
87.280334573 38.0
87.332855703 21.0
87.385376834 18.0
87.437897965 24.0
87.490419096 29.0
87.542940226 34.0
87.595461357 30.0
87.647982488 16.0
87.700503618 22.0
87.753024749 19.0
87.805545880 22.0
87.858067010 29.0
87.910588141 34.0
87.963109272 28.0
88.015630403 23.0
88.068151533 37.0
88.120672664 27.0
88.173193795 32.0
88.225714925 21.0
88.278236056 26.0
88.330757187 27.0
88.383278317 26.0
88.435799448 31.0
88.488320579 19.0
88.540841710 37.0
88.593362840 19.0
88.645883971 19.0
88.698405102 20.0
88.750926232 20.0
88.803447363 19.0
88.855968494 19.0
88.908489625 25.0
88.961010755 20.0
89.013531886 20.0
89.066053017 28.0
89.118574147 28.0
89.171095278 25.0
89.223616409 23.0
89.276137539 32.0
89.328658670 27.0
89.381179801 20.0
89.433700932 20.0
89.486222062 28.0
89.538743193 29.0
89.591264324 21.0
89.643785454 22.0
89.696306585 28.0
89.748827716 28.0
89.801348847 26.0
89.853869977 20.0
89.906391108 26.0
89.958912239 16.0
90.011433369 27.0
90.063954500 22.0
90.116475631 30.0
90.168996761 24.0
90.221517892 30.0
90.274039023 29.0
90.326560154 29.0
90.379081284 22.0
90.431602415 28.0
90.484123546 21.0
90.536644676 39.0
90.589165807 16.0
90.641686938 25.0
90.694208068 22.0
90.746729199 17.0
90.799250330 27.0
90.851771461 18.0
90.904292591 26.0
90.956813722 23.0
91.009334853 30.0
91.061855983 28.0
91.114377114 24.0
91.166898245 26.0
91.219419376 23.0
91.271940506 32.0
91.324461637 31.0
91.376982768 16.0
91.429503898 19.0
91.482025029 37.0
91.534546160 20.0
91.587067290 21.0
91.639588421 22.0
91.692109552 18.0
91.744630683 34.0
91.797151813 25.0
91.849672944 25.0
91.902194075 18.0
91.954715205 19.0
92.007236336 26.0
92.059757467 28.0
92.112278598 32.0
92.164799728 35.0
92.217320859 21.0
92.269841990 19.0
92.322363120 30.0
92.374884251 30.0
92.427405382 24.0
92.479926512 24.0
92.532447643 31.0
92.584968774 23.0
92.637489905 23.0
92.690011035 17.0
92.742532166 25.0
92.795053297 18.0
92.847574427 18.0
92.900095558 31.0
92.952616689 15.0
93.005137819 21.0
93.057658950 28.0
93.110180081 14.0
93.162701212 29.0
93.215222342 24.0
93.267743473 17.0
93.320264604 25.0
93.372785734 21.0
93.425306865 14.0
93.477827996 25.0
93.530349127 32.0
93.582870257 36.0
93.635391388 12.0
93.687912519 26.0
93.740433649 26.0
93.792954780 26.0
93.845475911 21.0
93.897997041 22.0
93.950518172 21.0
94.003039303 18.0
94.055560434 23.0
94.108081564 19.0
94.160602695 22.0
94.213123826 29.0
94.265644956 30.0
94.318166087 24.0
94.370687218 17.0
94.423208348 20.0
94.475729479 18.0
94.528250610 26.0
94.580771741 24.0
94.633292871 23.0
94.685814002 28.0
94.738335133 21.0
94.790856263 31.0
94.843377394 13.0
94.895898525 26.0
94.948419656 14.0
95.000940786 28.0
95.053461917 22.0
95.105983048 22.0
95.158504178 18.0
95.211025309 24.0
95.263546440 25.0
95.316067570 20.0
95.368588701 24.0
95.421109832 21.0
95.473630963 16.0
95.526152093 25.0
95.578673224 19.0
95.631194355 12.0
95.683715485 15.0
95.736236616 29.0
95.788757747 25.0
95.841278878 29.0
95.893800008 21.0
95.946321139 20.0
95.998842270 23.0
96.051363400 25.0
96.103884531 18.0
96.156405662 18.0
96.208926792 14.0
96.261447923 23.0
96.313969054 30.0
96.366490185 14.0
96.419011315 29.0
96.471532446 24.0
96.524053577 17.0
96.576574707 23.0
96.629095838 20.0
96.681616969 33.0
96.734138099 24.0
96.786659230 20.0
96.839180361 23.0
96.891701492 18.0
96.944222622 24.0
96.996743753 22.0
97.049264884 14.0
97.101786014 17.0
97.154307145 24.0
97.206828276 29.0
97.259349407 27.0
97.311870537 24.0
97.364391668 20.0
97.416912799 18.0
97.469433929 25.0
97.521955060 20.0
97.574476191 19.0
97.626997321 25.0
97.679518452 20.0
97.732039583 17.0
97.784560714 17.0
97.837081844 14.0
97.889602975 25.0
97.942124106 17.0
97.994645236 20.0
98.047166367 16.0
98.099687498 19.0
98.152208629 22.0
98.204729759 9.0
98.257250890 14.0
98.309772021 27.0
98.362293151 22.0
98.414814282 28.0
98.467335413 21.0
98.519856543 20.0
98.572377674 21.0
98.624898805 20.0
98.677419936 18.0
98.729941066 15.0
98.782462197 13.0
98.834983328 19.0
98.887504458 21.0
98.940025589 25.0
98.992546720 21.0
99.045067850 18.0
99.097588981 27.0
99.150110112 24.0
99.202631243 18.0
99.255152373 15.0
99.307673504 15.0
99.360194635 22.0
99.412715765 27.0
99.465236896 21.0
99.517758027 20.0
99.570279158 10.0
99.622800288 24.0
99.675321419 19.0
99.727842550 29.0
99.780363680 21.0
99.832884811 21.0
99.885405942 18.0
99.937927072 24.0
99.990448203 20.0
100.042969334 15.0
100.095490465 18.0
100.148011595 22.0
100.200532726 11.0
100.253053857 21.0
100.305574987 19.0
100.358096118 17.0
100.410617249 21.0
100.463138380 17.0
100.515659510 19.0
100.568180641 16.0
100.620701772 25.0
100.673222902 21.0
100.725744033 19.0
100.778265164 15.0
100.830786294 17.0
100.883307425 23.0
100.935828556 16.0
100.988349687 20.0
101.040870817 22.0
101.093391948 20.0
101.145913079 12.0
101.198434209 16.0
101.250955340 23.0
101.303476471 19.0
101.355997601 14.0
101.408518732 19.0
101.461039863 17.0
101.513560994 18.0
101.566082124 18.0
101.618603255 12.0
101.671124386 17.0
101.723645516 23.0
101.776166647 27.0
101.828687778 30.0
101.881208909 22.0
101.933730039 21.0
101.986251170 18.0
102.038772301 17.0
102.091293431 26.0
102.143814562 25.0
102.196335693 23.0
102.248856823 16.0
102.301377954 24.0
102.353899085 26.0
102.406420216 23.0
102.458941346 22.0
102.511462477 18.0
102.563983608 21.0
102.616504738 22.0
102.669025869 13.0
102.721547000 22.0
102.774068131 29.0
102.826589261 12.0
102.879110392 22.0
102.931631523 13.0
102.984152653 19.0
103.036673784 12.0
103.089194915 18.0
103.141716045 17.0
103.194237176 25.0
103.246758307 21.0
103.299279438 21.0
103.351800568 22.0
103.404321699 16.0
103.456842830 8.0
103.509363960 14.0
103.561885091 11.0
103.614406222 23.0
103.666927352 21.0
103.719448483 28.0
103.771969614 10.0
103.824490745 16.0
103.877011875 19.0
103.929533006 10.0
103.982054137 12.0
104.034575267 29.0
104.087096398 18.0
104.139617529 19.0
104.192138660 18.0
104.244659790 16.0
104.297180921 15.0
104.349702052 10.0
104.402223182 26.0
104.454744313 19.0
104.507265444 27.0
104.559786574 23.0
104.612307705 11.0
104.664828836 17.0
104.717349967 14.0
104.769871097 16.0
104.822392228 12.0
104.874913359 16.0
104.927434489 14.0
104.979955620 25.0
105.032476751 22.0
105.084997882 15.0
105.137519012 20.0
105.190040143 17.0
105.242561274 8.0
105.295082404 16.0
105.347603535 18.0
105.400124666 15.0
105.452645796 21.0
105.505166927 15.0
105.557688058 18.0
105.610209189 30.0
105.662730319 25.0
105.715251450 20.0
105.767772581 22.0
105.820293711 11.0
105.872814842 24.0
105.925335973 21.0
105.977857103 20.0
106.030378234 22.0
106.082899365 30.0
106.135420496 24.0
106.187941626 16.0
106.240462757 19.0
106.292983888 16.0
106.345505018 19.0
106.398026149 16.0
106.450547280 20.0
106.503068411 15.0
106.555589541 16.0
106.608110672 20.0
106.660631803 21.0
106.713152933 28.0
106.765674064 23.0
106.818195195 20.0
106.870716325 15.0
106.923237456 13.0
106.975758587 15.0
107.028279718 24.0
107.080800848 15.0
107.133321979 17.0
107.185843110 21.0
107.238364240 17.0
107.290885371 14.0
107.343406502 20.0
107.395927633 12.0
107.448448763 18.0
107.500969894 21.0
107.553491025 21.0
107.606012155 20.0
107.658533286 11.0
107.711054417 15.0
107.763575547 23.0
107.816096678 22.0
107.868617809 18.0
107.921138940 16.0
107.973660070 17.0
108.026181201 16.0
108.078702332 14.0
108.131223462 25.0
108.183744593 17.0
108.236265724 14.0
108.288786854 22.0
108.341307985 15.0
108.393829116 14.0
108.446350247 17.0
108.498871377 18.0
108.551392508 28.0
108.603913639 19.0
108.656434769 17.0
108.708955900 15.0
108.761477031 22.0
108.813998162 8.0
108.866519292 17.0
108.919040423 14.0
108.971561554 27.0
109.024082684 14.0
109.076603815 17.0
109.129124946 24.0
109.181646076 13.0
109.234167207 9.0
109.286688338 13.0
109.339209469 11.0
109.391730599 22.0
109.444251730 21.0
109.496772861 17.0
109.549293991 21.0
109.601815122 14.0
109.654336253 18.0
109.706857384 20.0
109.759378514 22.0
109.811899645 12.0
109.864420776 9.0
109.916941906 19.0
109.969463037 18.0
110.021984168 21.0
110.074505298 15.0
110.127026429 17.0
110.179547560 23.0
110.232068691 20.0
110.284589821 27.0
110.337110952 22.0
110.389632083 19.0
110.442153213 18.0
110.494674344 17.0
110.547195475 7.0
110.599716605 20.0
110.652237736 26.0
110.704758867 16.0
110.757279998 21.0
110.809801128 9.0
110.862322259 10.0
110.914843390 12.0
110.967364520 15.0
111.019885651 18.0
111.072406782 22.0
111.124927913 18.0
111.177449043 15.0
111.229970174 20.0
111.282491305 15.0
111.335012435 29.0
111.387533566 20.0
111.440054697 11.0
111.492575827 6.0
111.545096958 15.0
111.597618089 14.0
111.650139220 15.0
111.702660350 12.0
111.755181481 15.0
111.807702612 15.0
111.860223742 13.0
111.912744873 14.0
111.965266004 16.0
112.017787135 15.0
112.070308265 21.0
112.122829396 21.0
112.175350527 15.0
112.227871657 17.0
112.280392788 11.0
112.332913919 18.0
112.385435049 17.0
112.437956180 21.0
112.490477311 20.0
112.542998442 15.0
112.595519572 21.0
112.648040703 22.0
112.700561834 8.0
112.753082964 14.0
112.805604095 11.0
112.858125226 17.0
112.910646356 20.0
112.963167487 12.0
113.015688618 21.0
113.068209749 15.0
113.120730879 13.0
113.173252010 13.0
113.225773141 22.0
113.278294271 15.0
113.330815402 16.0
113.383336533 18.0
113.435857664 18.0
113.488378794 16.0
113.540899925 14.0
113.593421056 23.0
113.645942186 18.0
113.698463317 17.0
113.750984448 13.0
113.803505578 20.0
113.856026709 17.0
113.908547840 19.0
113.961068971 14.0
114.013590101 19.0
114.066111232 19.0
114.118632363 23.0
114.171153493 19.0
114.223674624 16.0
114.276195755 22.0
114.328716886 12.0
114.381238016 11.0
114.433759147 20.0
114.486280278 20.0
114.538801408 14.0
114.591322539 19.0
114.643843670 19.0
114.696364800 16.0
114.748885931 13.0
114.801407062 14.0
114.853928193 24.0
114.906449323 25.0
114.958970454 24.0
115.011491585 16.0
115.064012715 19.0
115.116533846 16.0
115.169054977 27.0
115.221576107 20.0
115.274097238 10.0
115.326618369 23.0
115.379139500 16.0
115.431660630 16.0
115.484181761 24.0
115.536702892 7.0
115.589224022 15.0
115.641745153 13.0
115.694266284 13.0
115.746787415 9.0
115.799308545 17.0
115.851829676 20.0
115.904350807 9.0
115.956871937 15.0
116.009393068 21.0
116.061914199 25.0
116.114435329 7.0
116.166956460 16.0
116.219477591 24.0
116.271998722 20.0
116.324519852 15.0
116.377040983 14.0
116.429562114 22.0
116.482083244 23.0
116.534604375 9.0
116.587125506 15.0
116.639646637 24.0
116.692167767 11.0
116.744688898 16.0
116.797210029 16.0
116.849731159 21.0
116.902252290 14.0
116.954773421 17.0
117.007294551 18.0
117.059815682 13.0
117.112336813 21.0
117.164857944 16.0
117.217379074 18.0
117.269900205 16.0
117.322421336 23.0
117.374942466 16.0
117.427463597 17.0
117.479984728 18.0
117.532505858 14.0
117.585026989 19.0
117.637548120 15.0
117.690069251 21.0
117.742590381 12.0
117.795111512 22.0
117.847632643 15.0
117.900153773 16.0
117.952674904 20.0
118.005196035 19.0
118.057717166 16.0
118.110238296 17.0
118.162759427 18.0
118.215280558 20.0
118.267801688 17.0
118.320322819 21.0
118.372843950 16.0
118.425365080 18.0
118.477886211 11.0
118.530407342 15.0
118.582928473 17.0
118.635449603 25.0
118.687970734 18.0
118.740491865 12.0
118.793012995 13.0
118.845534126 16.0
118.898055257 16.0
118.950576387 12.0
119.003097518 20.0
119.055618649 21.0
119.108139780 13.0
119.160660910 14.0
119.213182041 16.0
119.265703172 19.0
119.318224302 23.0
119.370745433 12.0
119.423266564 15.0
119.475787695 17.0
119.528308825 15.0
119.580829956 9.0
119.633351087 14.0
119.685872217 12.0
119.738393348 13.0
119.790914479 18.0
119.843435609 19.0
119.895956740 16.0
119.948477871 24.0
120.000999002 23.0
120.053520132 13.0
120.106041263 16.0
120.158562394 17.0
120.211083524 13.0
120.263604655 19.0
120.316125786 17.0
120.368646917 15.0
120.421168047 19.0
120.473689178 16.0
120.526210309 15.0
120.578731439 14.0
120.631252570 13.0
120.683773701 22.0
120.736294831 27.0
120.788815962 16.0
120.841337093 15.0
120.893858224 13.0
120.946379354 19.0
120.998900485 12.0
121.051421616 11.0
121.103942746 18.0
121.156463877 19.0
121.208985008 18.0
121.261506138 19.0
121.314027269 17.0
121.366548400 15.0
121.419069531 13.0
121.471590661 14.0
121.524111792 20.0
121.576632923 16.0
121.629154053 28.0
121.681675184 9.0
121.734196315 19.0
121.786717446 16.0
121.839238576 18.0
121.891759707 19.0
121.944280838 11.0
121.996801968 16.0
122.049323099 12.0
122.101844230 17.0
122.154365360 17.0
122.206886491 19.0
122.259407622 23.0
122.311928753 27.0
122.364449883 14.0
122.416971014 14.0
122.469492145 14.0
122.522013275 22.0
122.574534406 22.0
122.627055537 13.0
122.679576668 20.0
122.732097798 18.0
122.784618929 16.0
122.837140060 10.0
122.889661190 18.0
122.942182321 15.0
122.994703452 20.0
123.047224582 19.0
123.099745713 21.0
123.152266844 12.0
123.204787975 18.0
123.257309105 19.0
123.309830236 17.0
123.362351367 14.0
123.414872497 24.0
123.467393628 16.0
123.519914759 22.0
123.572435889 12.0
123.624957020 16.0
123.677478151 11.0
123.729999282 13.0
123.782520412 22.0
123.835041543 15.0
123.887562674 22.0
123.940083804 22.0
123.992604935 21.0
124.045126066 21.0
124.097647197 20.0
124.150168327 20.0
124.202689458 20.0
124.255210589 7.0
124.307731719 19.0
124.360252850 10.0
124.412773981 20.0
124.465295111 16.0
124.517816242 24.0
124.570337373 18.0
124.622858504 13.0
124.675379634 23.0
124.727900765 16.0
124.780421896 21.0
124.832943026 16.0
124.885464157 16.0
124.937985288 16.0
124.990506419 15.0
125.043027549 24.0
125.095548680 20.0
125.148069811 13.0
125.200590941 13.0
125.253112072 21.0
125.305633203 15.0
125.358154333 20.0
125.410675464 10.0
125.463196595 26.0
125.515717726 16.0
125.568238856 23.0
125.620759987 15.0
125.673281118 15.0
125.725802248 13.0
125.778323379 10.0
125.830844510 12.0
125.883365640 23.0
125.935886771 10.0
125.988407902 24.0
126.040929033 14.0
126.093450163 20.0
126.145971294 18.0
126.198492425 13.0
126.251013555 15.0
126.303534686 19.0
126.356055817 19.0
126.408576948 23.0
126.461098078 19.0
126.513619209 27.0
126.566140340 19.0
126.618661470 23.0
126.671182601 18.0
126.723703732 27.0
126.776224862 28.0
126.828745993 17.0
126.881267124 21.0
126.933788255 19.0
126.986309385 20.0
127.038830516 18.0
127.091351647 26.0
127.143872777 23.0
127.196393908 18.0
127.248915039 15.0
127.301436170 16.0
127.353957300 17.0
127.406478431 12.0
127.458999562 24.0
127.511520692 31.0
127.564041823 8.0
127.616562954 14.0
127.669084084 10.0
127.721605215 16.0
127.774126346 24.0
127.826647477 15.0
127.879168607 16.0
127.931689738 25.0
127.984210869 14.0
128.036731999 11.0
128.089253130 17.0
128.141774261 15.0
128.194295391 22.0
128.246816522 20.0
128.299337653 13.0
128.351858784 16.0
128.404379914 18.0
128.456901045 23.0
128.509422176 13.0
128.561943306 26.0
128.614464437 19.0
128.666985568 13.0
128.719506699 13.0
128.772027829 14.0
128.824548960 12.0
128.877070091 13.0
128.929591221 12.0
128.982112352 21.0
129.034633483 22.0
129.087154613 19.0
129.139675744 26.0
129.192196875 18.0
129.244718006 27.0
129.297239136 22.0
129.349760267 13.0
129.402281398 11.0
129.454802528 27.0
129.507323659 15.0
129.559844790 23.0
129.612365921 15.0
129.664887051 22.0
129.717408182 15.0
129.769929313 18.0
129.822450443 18.0
129.874971574 19.0
129.927492705 22.0
129.980013835 14.0
130.032534966 20.0
130.085056097 20.0
130.137577228 11.0
130.190098358 12.0
130.242619489 23.0
130.295140620 27.0
130.347661750 28.0
130.400182881 12.0
130.452704012 15.0
130.505225142 12.0
130.557746273 17.0
130.610267404 21.0
130.662788535 21.0
130.715309665 13.0
130.767830796 22.0
130.820351927 13.0
130.872873057 19.0
130.925394188 16.0
130.977915319 17.0
131.030436450 16.0
131.082957580 23.0
131.135478711 15.0
131.187999842 19.0
131.240520972 17.0
131.293042103 18.0
131.345563234 22.0
131.398084364 15.0
131.450605495 32.0
131.503126626 16.0
131.555647757 27.0
131.608168887 20.0
131.660690018 14.0
131.713211149 19.0
131.765732279 21.0
131.818253410 12.0
131.870774541 14.0
131.923295672 20.0
131.975816802 9.0
132.028337933 14.0
132.080859064 24.0
132.133380194 20.0
132.185901325 19.0
132.238422456 10.0
132.290943586 18.0
132.343464717 20.0
132.395985848 11.0
132.448506979 15.0
132.501028109 28.0
132.553549240 18.0
132.606070371 18.0
132.658591501 23.0
132.711112632 23.0
132.763633763 18.0
132.816154893 17.0
132.868676024 18.0
132.921197155 13.0
132.973718286 23.0
133.026239416 18.0
133.078760547 14.0
133.131281678 15.0
133.183802808 13.0
133.236323939 16.0
133.288845070 16.0
133.341366201 27.0
133.393887331 17.0
133.446408462 29.0
133.498929593 21.0
133.551450723 18.0
133.603971854 16.0
133.656492985 16.0
133.709014115 15.0
133.761535246 21.0
133.814056377 10.0
133.866577508 18.0
133.919098638 23.0
133.971619769 21.0
134.024140900 15.0
134.076662030 14.0
134.129183161 11.0
134.181704292 19.0
134.234225423 20.0
134.286746553 26.0
134.339267684 19.0
134.391788815 19.0
134.444309945 12.0
134.496831076 22.0
134.549352207 18.0
134.601873337 21.0
134.654394468 20.0
134.706915599 21.0
134.759436730 16.0
134.811957860 26.0
134.864478991 19.0
134.917000122 17.0
134.969521252 23.0
135.022042383 15.0
135.074563514 12.0
135.127084644 19.0
135.179605775 21.0
135.232126906 23.0
135.284648037 29.0
135.337169167 24.0
135.389690298 11.0
135.442211429 17.0
135.494732559 10.0
135.547253690 14.0
135.599774821 21.0
135.652295952 18.0
135.704817082 20.0
135.757338213 17.0
135.809859344 31.0
135.862380474 21.0
135.914901605 15.0
135.967422736 11.0
136.019943866 22.0
136.072464997 18.0
136.124986128 20.0
136.177507259 21.0
136.230028389 17.0
136.282549520 27.0
136.335070651 16.0
136.387591781 22.0
136.440112912 13.0
136.492634043 16.0
136.545155174 20.0
136.597676304 18.0
136.650197435 25.0
136.702718566 12.0
136.755239696 21.0
136.807760827 18.0
136.860281958 25.0
136.912803088 15.0
136.965324219 26.0
137.017845350 23.0
137.070366481 22.0
137.122887611 21.0
137.175408742 14.0
137.227929873 18.0
137.280451003 19.0
137.332972134 15.0
137.385493265 22.0
137.438014395 16.0
137.490535526 14.0
137.543056657 14.0
137.595577788 27.0
137.648098918 10.0
137.700620049 24.0
137.753141180 11.0
137.805662310 12.0
137.858183441 20.0
137.910704572 10.0
137.963225703 16.0
138.015746833 16.0
138.068267964 9.0
138.120789095 23.0
138.173310225 19.0
138.225831356 17.0
138.278352487 24.0
138.330873617 9.0
138.383394748 20.0
138.435915879 17.0
138.488437010 19.0
138.540958140 22.0
138.593479271 21.0
138.646000402 11.0
138.698521532 21.0
138.751042663 18.0
138.803563794 9.0
138.856084925 14.0
138.908606055 17.0
138.961127186 18.0
139.013648317 21.0
139.066169447 27.0
139.118690578 16.0
139.171211709 10.0
139.223732839 22.0
139.276253970 20.0
139.328775101 25.0
139.381296232 16.0
139.433817362 18.0
139.486338493 12.0
139.538859624 22.0
139.591380754 17.0
139.643901885 24.0
139.696423016 15.0
139.748944146 18.0
139.801465277 17.0
139.853986408 12.0
139.906507539 20.0
139.959028669 19.0
140.011549800 21.0
