2.091060570 47.0
2.143581701 32.0
2.196102831 48.0
2.248623962 57.0
2.301145093 56.0
2.353666224 55.0
2.406187354 62.0
2.458708485 63.0
2.511229616 68.0
2.563750746 67.0
2.616271877 57.0
2.668793008 63.0
2.721314138 52.0
2.773835269 70.0
2.826356400 74.0
2.878877531 65.0
2.931398661 71.0
2.983919792 55.0
3.036440923 63.0
3.088962053 72.0
3.141483184 78.0
3.194004315 72.0
3.246525445 77.0
3.299046576 65.0
3.351567707 61.0
3.404088838 73.0
3.456609968 64.0
3.509131099 60.0
3.561652230 76.0
3.614173360 64.0
3.666694491 61.0
3.719215622 68.0
3.771736753 69.0
3.824257883 67.0
3.876779014 61.0
3.929300145 54.0
3.981821275 62.0
4.034342406 68.0
4.086863537 60.0
4.139384667 69.0
4.191905798 66.0
4.244426929 65.0
4.296948060 64.0
4.349469190 67.0
4.401990321 55.0
4.454511452 81.0
4.507032582 61.0
4.559553713 81.0
4.612074844 69.0
4.664595975 70.0
4.717117105 79.0
4.769638236 91.0
4.822159367 66.0
4.874680497 86.0
4.927201628 56.0
4.979722759 78.0
5.032243889 69.0
5.084765020 69.0
5.137286151 77.0
5.189807282 68.0
5.242328412 69.0
5.294849543 72.0
5.347370674 79.0
5.399891804 62.0
5.452412935 64.0
5.504934066 57.0
5.557455196 64.0
5.609976327 77.0
5.662497458 72.0
5.715018589 75.0
5.767539719 81.0
5.820060850 90.0
5.872581981 67.0
5.925103111 64.0
5.977624242 63.0
6.030145373 58.0
6.082666504 70.0
6.135187634 74.0
6.187708765 70.0
6.240229896 75.0
6.292751026 63.0
6.345272157 72.0
6.397793288 74.0
6.450314418 55.0
6.502835549 66.0
6.555356680 60.0
6.607877811 80.0
6.660398941 72.0
6.712920072 79.0
6.765441203 69.0
6.817962333 79.0
6.870483464 69.0
6.923004595 66.0
6.975525726 59.0
7.028046856 59.0
7.080567987 75.0
7.133089118 74.0
7.185610248 76.0
7.238131379 64.0
7.290652510 68.0
7.343173640 70.0
7.395694771 87.0
7.448215902 85.0
7.500737033 74.0
7.553258163 68.0
7.605779294 74.0
7.658300425 67.0
7.710821555 63.0
7.763342686 67.0
7.815863817 76.0
7.868384947 55.0
7.920906078 65.0
7.973427209 69.0
8.025948340 77.0
8.078469470 78.0
8.130990601 84.0
8.183511732 74.0
8.236032862 58.0
8.288553993 64.0
8.341075124 88.0
8.393596255 57.0
8.446117385 87.0
8.498638516 74.0
8.551159647 65.0
8.603680777 76.0
8.656201908 65.0
8.708723039 65.0
8.761244169 62.0
8.813765300 75.0
8.866286431 75.0
8.918807562 88.0
8.971328692 103.0
9.023849823 90.0
9.076370954 112.0
9.128892084 95.0
9.181413215 76.0
9.233934346 85.0
9.286455477 63.0
9.338976607 59.0
9.391497738 71.0
9.444018869 75.0
9.496539999 67.0
9.549061130 72.0
9.601582261 64.0
9.654103391 84.0
9.706624522 68.0
9.759145653 88.0
9.811666784 70.0
9.864187914 57.0
9.916709045 75.0
9.969230176 86.0
10.021751306 73.0
10.074272437 71.0
10.126793568 83.0
10.179314698 71.0
10.231835829 78.0
10.284356960 68.0
10.336878091 65.0
10.389399221 62.0
10.441920352 68.0
10.494441483 86.0
10.546962613 88.0
10.599483744 68.0
10.652004875 64.0
10.704526006 74.0
10.757047136 90.0
10.809568267 66.0
10.862089398 56.0
10.914610528 72.0
10.967131659 62.0
11.019652790 78.0
11.072173920 77.0
11.124695051 62.0
11.177216182 74.0
11.229737313 77.0
11.282258443 65.0
11.334779574 63.0
11.387300705 77.0
11.439821835 64.0
11.492342966 70.0
11.544864097 75.0
11.597385228 86.0
11.649906358 82.0
11.702427489 73.0
11.754948620 71.0
11.807469750 74.0
11.859990881 93.0
11.912512012 66.0
11.965033142 54.0
12.017554273 59.0
12.070075404 61.0
12.122596535 53.0
12.175117665 53.0
12.227638796 58.0
12.280159927 68.0
12.332681057 69.0
12.385202188 64.0
12.437723319 72.0
12.490244449 63.0
12.542765580 61.0
12.595286711 83.0
12.647807842 78.0
12.700328972 61.0
12.752850103 65.0
12.805371234 73.0
12.857892364 68.0
12.910413495 76.0
12.962934626 70.0
13.015455757 65.0
13.067976887 62.0
13.120498018 65.0
13.173019149 72.0
13.225540279 74.0
13.278061410 63.0
13.330582541 79.0
13.383103671 66.0
13.435624802 71.0
13.488145933 67.0
13.540667064 56.0
13.593188194 71.0
13.645709325 82.0
13.698230456 52.0
13.750751586 73.0
13.803272717 57.0
13.855793848 84.0
13.908314979 84.0
13.960836109 70.0
14.013357240 65.0
14.065878371 85.0
14.118399501 70.0
14.170920632 55.0
14.223441763 53.0
14.275962893 71.0
14.328484024 59.0
14.381005155 76.0
14.433526286 80.0
14.486047416 54.0
14.538568547 52.0
14.591089678 67.0
14.643610808 66.0
14.696131939 77.0
14.748653070 71.0
14.801174200 87.0
14.853695331 109.0
14.906216462 164.0
14.958737593 274.0
15.011258723 459.0
15.063779854 474.0
15.116300985 226.0
15.168822115 84.0
15.221343246 69.0
15.273864377 68.0
15.326385508 51.0
15.378906638 59.0
15.431427769 59.0
15.483948900 70.0
15.536470030 65.0
15.588991161 63.0
15.641512292 70.0
15.694033422 62.0
15.746554553 85.0
15.799075684 69.0
15.851596815 64.0
15.904117945 67.0
15.956639076 54.0
16.009160207 59.0
16.061681337 54.0
16.114202468 67.0
16.166723599 58.0
16.219244730 56.0
16.271765860 49.0
16.324286991 47.0
16.376808122 71.0
16.429329252 65.0
16.481850383 62.0
16.534371514 43.0
16.586892644 58.0
16.639413775 61.0
16.691934906 60.0
16.744456037 73.0
16.796977167 64.0
16.849498298 70.0
16.902019429 62.0
16.954540559 59.0
17.007061690 72.0
17.059582821 70.0
17.112103951 58.0
17.164625082 64.0
17.217146213 70.0
17.269667344 54.0
17.322188474 55.0
17.374709605 56.0
17.427230736 66.0
17.479751866 62.0
17.532272997 53.0
17.584794128 63.0
17.637315259 74.0
17.689836389 74.0
17.742357520 64.0
17.794878651 64.0
17.847399781 54.0
17.899920912 63.0
17.952442043 75.0
18.004963173 66.0
18.057484304 72.0
18.110005435 114.0
18.162526566 185.0
18.215047696 277.0
18.267568827 608.0
18.320089958 2183.0
18.372611088 4231.0
18.425132219 2780.0
18.477653350 714.0
18.530174481 85.0
18.582695611 54.0
18.635216742 59.0
18.687737873 61.0
18.740259003 64.0
18.792780134 50.0
18.845301265 61.0
18.897822395 53.0
18.950343526 62.0
19.002864657 59.0
19.055385788 59.0
19.107906918 55.0
19.160428049 44.0
19.212949180 43.0
19.265470310 63.0
19.317991441 62.0
19.370512572 52.0
19.423033702 48.0
19.475554833 52.0
19.528075964 52.0
19.580597095 58.0
19.633118225 64.0
19.685639356 57.0
19.738160487 56.0
19.790681617 64.0
19.843202748 53.0
19.895723879 60.0
19.948245010 49.0
20.000766140 51.0
20.053287271 60.0
20.105808402 42.0
20.158329532 52.0
20.210850663 53.0
20.263371794 58.0
20.315892924 57.0
20.368414055 54.0
20.420935186 56.0
20.473456317 55.0
20.525977447 48.0
20.578498578 61.0
20.631019709 40.0
20.683540839 42.0
20.736061970 40.0
20.788583101 41.0
20.841104232 52.0
20.893625362 59.0
20.946146493 61.0
20.998667624 57.0
21.051188754 57.0
21.103709885 49.0
21.156231016 50.0
21.208752146 47.0
21.261273277 63.0
21.313794408 43.0
21.366315539 46.0
21.418836669 58.0
21.471357800 60.0
21.523878931 51.0
21.576400061 40.0
21.628921192 57.0
21.681442323 63.0
21.733963453 57.0
21.786484584 72.0
21.839005715 115.0
21.891526846 203.0
21.944047976 187.0
21.996569107 89.0
22.049090238 65.0
22.101611368 59.0
22.154132499 55.0
22.206653630 56.0
22.259174761 56.0
22.311695891 65.0
22.364217022 68.0
22.416738153 54.0
22.469259283 46.0
22.521780414 67.0
22.574301545 53.0
22.626822675 42.0
22.679343806 55.0
22.731864937 44.0
22.784386068 48.0
22.836907198 49.0
22.889428329 35.0
22.941949460 55.0
22.994470590 52.0
23.046991721 44.0
23.099512852 41.0
23.152033983 56.0
23.204555113 46.0
23.257076244 58.0
23.309597375 44.0
23.362118505 42.0
23.414639636 48.0
23.467160767 56.0
23.519681897 45.0
23.572203028 47.0
23.624724159 47.0
23.677245290 52.0
23.729766420 76.0
23.782287551 132.0
23.834808682 242.0
23.887329812 478.0
23.939850943 420.0
23.992372074 198.0
24.044893204 73.0
24.097414335 65.0
24.149935466 67.0
24.202456597 38.0
24.254977727 55.0
24.307498858 59.0
24.360019989 43.0
24.412541119 53.0
24.465062250 36.0
24.517583381 50.0
24.570104512 41.0
24.622625642 54.0
24.675146773 58.0
24.727667904 52.0
24.780189034 60.0
24.832710165 54.0
24.885231296 56.0
24.937752426 50.0
24.990273557 51.0
25.042794688 53.0
25.095315819 71.0
25.147836949 60.0
25.200358080 62.0
25.252879211 59.0
25.305400341 69.0
25.357921472 76.0
25.410442603 117.0
25.462963733 212.0
25.515484864 489.0
25.568005995 1193.0
25.620527126 2228.0
25.673048256 1564.0
25.725569387 538.0
25.778090518 177.0
25.830611648 98.0
25.883132779 82.0
25.935653910 74.0
25.988175041 66.0
26.040696171 54.0
26.093217302 60.0
26.145738433 66.0
26.198259563 50.0
26.250780694 46.0
26.303301825 51.0
26.355822955 47.0
26.408344086 51.0
26.460865217 54.0
26.513386348 56.0
26.565907478 46.0
26.618428609 35.0
26.670949740 55.0
26.723470870 42.0
26.775992001 72.0
26.828513132 49.0
26.881034263 48.0
26.933555393 49.0
26.986076524 57.0
27.038597655 61.0
27.091118785 77.0
27.143639916 75.0
27.196161047 96.0
27.248682177 172.0
27.301203308 270.0
27.353724439 209.0
27.406245570 103.0
27.458766700 79.0
27.511287831 58.0
27.563808962 89.0
27.616330092 124.0
27.668851223 185.0
27.721372354 238.0
27.773893484 160.0
27.826414615 108.0
27.878935746 85.0
27.931456877 84.0
27.983978007 82.0
28.036499138 56.0
28.089020269 64.0
28.141541399 49.0
28.194062530 58.0
28.246583661 58.0
28.299104792 66.0
28.351625922 48.0
28.404147053 60.0
28.456668184 62.0
28.509189314 47.0
28.561710445 47.0
28.614231576 50.0
28.666752706 61.0
28.719273837 61.0
28.771794968 71.0
28.824316099 96.0
28.876837229 169.0
28.929358360 419.0
28.981879491 1111.0
29.034400621 1822.0
29.086921752 1131.0
29.139442883 654.0
29.191964014 775.0
29.244485144 783.0
29.297006275 412.0
29.349527406 150.0
29.402048536 80.0
29.454569667 86.0
29.507090798 69.0
29.559611928 66.0
29.612133059 78.0
29.664654190 67.0
29.717175321 64.0
29.769696451 56.0
29.822217582 58.0
29.874738713 80.0
29.927259843 103.0
29.979780974 106.0
30.032302105 197.0
30.084823235 410.0
30.137344366 1029.0
30.189865497 2429.0
30.242386628 3766.0
30.294907758 3922.0
30.347428889 2498.0
30.399950020 2477.0
30.452471150 4254.0
30.504992281 4917.0
30.557513412 2372.0
30.610034543 534.0
30.662555673 196.0
30.715076804 109.0
30.767597935 90.0
30.820119065 66.0
30.872640196 66.0
30.925161327 57.0
30.977682457 69.0
31.030203588 66.0
31.082724719 60.0
31.135245850 62.0
31.187766980 44.0
31.240288111 62.0
31.292809242 69.0
31.345330372 67.0
31.397851503 67.0
31.450372634 60.0
31.502893765 61.0
31.555414895 67.0
31.607936026 59.0
31.660457157 52.0
31.712978287 57.0
31.765499418 57.0
31.818020549 48.0
31.870541679 59.0
31.923062810 47.0
31.975583941 58.0
32.028105072 56.0
32.080626202 54.0
32.133147333 61.0
32.185668464 47.0
32.238189594 49.0
32.290710725 45.0
32.343231856 48.0
32.395752986 67.0
32.448274117 80.0
32.500795248 70.0
32.553316379 70.0
32.605837509 59.0
32.658358640 51.0
32.710879771 42.0
32.763400901 47.0
32.815922032 41.0
32.868443163 46.0
32.920964294 51.0
32.973485424 58.0
33.026006555 55.0
33.078527686 46.0
33.131048816 64.0
33.183569947 80.0
33.236091078 122.0
33.288612208 188.0
33.341133339 374.0
33.393654470 558.0
33.446175601 474.0
33.498696731 241.0
33.551217862 107.0
33.603738993 72.0
33.656260123 56.0
33.708781254 49.0
33.761302385 87.0
33.813823516 121.0
33.866344646 203.0
33.918865777 238.0
33.971386908 143.0
34.023908038 79.0
34.076429169 62.0
34.128950300 60.0
34.181471430 70.0
34.233992561 72.0
34.286513692 118.0
34.339034823 220.0
34.391555953 504.0
34.444077084 1483.0
34.496598215 3043.0
34.549119345 4063.0
34.601640476 2343.0
34.654161607 611.0
34.706682737 217.0
34.759203868 96.0
34.811724999 87.0
34.864246130 68.0
34.916767260 55.0
34.969288391 64.0
35.021809522 54.0
35.074330652 58.0
35.126851783 50.0
35.179372914 42.0
35.231894045 45.0
35.284415175 39.0
35.336936306 45.0
35.389457437 49.0
35.441978567 47.0
35.494499698 46.0
35.547020829 38.0
35.599541959 45.0
35.652063090 48.0
35.704584221 53.0
35.757105352 59.0
35.809626482 71.0
35.862147613 70.0
35.914668744 46.0
35.967189874 42.0
36.019711005 46.0
36.072232136 49.0
36.124753267 39.0
36.177274397 47.0
36.229795528 43.0
36.282316659 38.0
36.334837789 44.0
36.387358920 52.0
36.439880051 37.0
36.492401181 46.0
36.544922312 58.0
36.597443443 57.0
36.649964574 45.0
36.702485704 59.0
36.755006835 86.0
36.807527966 100.0
36.860049096 91.0
36.912570227 58.0
36.965091358 53.0
37.017612488 51.0
37.070133619 58.0
37.122654750 84.0
37.175175881 75.0
37.227697011 115.0
37.280218142 147.0
37.332739273 288.0
37.385260403 275.0
37.437781534 145.0
37.490302665 84.0
37.542823796 94.0
37.595344926 89.0
37.647866057 66.0
37.700387188 69.0
37.752908318 35.0
37.805429449 35.0
37.857950580 44.0
37.910471710 47.0
37.962992841 37.0
38.015513972 43.0
38.068035103 62.0
38.120556233 38.0
38.173077364 34.0
38.225598495 50.0
38.278119625 40.0
38.330640756 30.0
38.383161887 59.0
38.435683018 52.0
38.488204148 39.0
38.540725279 50.0
38.593246410 60.0
38.645767540 39.0
38.698288671 33.0
38.750809802 43.0
38.803330932 43.0
38.855852063 58.0
38.908373194 87.0
38.960894325 168.0
39.013415455 382.0
39.065936586 595.0
39.118457717 626.0
39.170978847 314.0
39.223499978 123.0
39.276021109 82.0
39.328542239 60.0
39.381063370 52.0
39.433584501 57.0
39.486105632 44.0
39.538626762 56.0
39.591147893 44.0
39.643669024 49.0
39.696190154 42.0
39.748711285 42.0
39.801232416 29.0
39.853753547 52.0
39.906274677 62.0
39.958795808 80.0
40.011316939 70.0
40.063838069 90.0
40.116359200 38.0
40.168880331 43.0
40.221401461 36.0
40.273922592 53.0
40.326443723 48.0
40.378964854 53.0
40.431485984 65.0
40.484007115 70.0
40.536528246 73.0
40.589049376 118.0
40.641570507 268.0
40.694091638 607.0
40.746612769 1417.0
40.799133899 2343.0
40.851655030 1786.0
40.904176161 665.0
40.956697291 196.0
41.009218422 115.0
41.061739553 86.0
41.114260683 62.0
41.166781814 49.0
41.219302945 62.0
41.271824076 45.0
41.324345206 42.0
41.376866337 49.0
41.429387468 50.0
41.481908598 40.0
41.534429729 52.0
41.586950860 28.0
41.639471990 36.0
41.691993121 52.0
41.744514252 37.0
41.797035383 37.0
41.849556513 36.0
41.902077644 49.0
41.954598775 34.0
42.007119905 53.0
42.059641036 47.0
42.112162167 43.0
42.164683298 58.0
42.217204428 49.0
42.269725559 54.0
42.322246690 42.0
42.374767820 32.0
42.427288951 43.0
42.479810082 32.0
42.532331212 36.0
42.584852343 48.0
42.637373474 48.0
42.689894605 36.0
42.742415735 39.0
42.794936866 40.0
42.847457997 33.0
42.899979127 47.0
42.952500258 36.0
43.005021389 29.0
43.057542520 36.0
43.110063650 47.0
43.162584781 48.0
43.215105912 40.0
43.267627042 30.0
43.320148173 33.0
43.372669304 55.0
43.425190434 77.0
43.477711565 93.0
43.530232696 80.0
43.582753827 55.0
43.635274957 37.0
43.687796088 53.0
43.740317219 43.0
43.792838349 34.0
43.845359480 51.0
43.897880611 49.0
43.950401741 59.0
44.002922872 51.0
44.055444003 57.0
44.107965134 51.0
44.160486264 61.0
44.213007395 51.0
44.265528526 64.0
44.318049656 73.0
44.370570787 135.0
44.423091918 265.0
44.475613049 609.0
44.528134179 915.0
44.580655310 974.0
44.633176441 858.0
44.685697571 570.0
44.738218702 217.0
44.790739833 95.0
44.843260963 64.0
44.895782094 55.0
44.948303225 44.0
45.000824356 41.0
45.053345486 60.0
45.105866617 35.0
45.158387748 46.0
45.210908878 42.0
45.263430009 52.0
45.315951140 51.0
45.368472271 46.0
45.420993401 59.0
45.473514532 59.0
45.526035663 76.0
45.578556793 115.0
45.631077924 195.0
45.683599055 241.0
45.736120185 169.0
45.788641316 93.0
45.841162447 72.0
45.893683578 97.0
45.946204708 169.0
45.998725839 359.0
46.051246970 724.0
46.103768100 1072.0
46.156289231 746.0
46.208810362 393.0
46.261331492 188.0
46.313852623 122.0
46.366373754 88.0
46.418894885 58.0
46.471416015 54.0
46.523937146 48.0
46.576458277 63.0
46.628979407 49.0
46.681500538 43.0
46.734021669 60.0
46.786542800 86.0
46.839063930 174.0
46.891585061 313.0
46.944106192 425.0
46.996627322 299.0
47.049148453 128.0
47.101669584 66.0
47.154190714 35.0
47.206711845 66.0
47.259232976 65.0
47.311754107 40.0
47.364275237 62.0
47.416796368 57.0
47.469317499 115.0
47.521838629 158.0
47.574359760 169.0
47.626880891 135.0
47.679402022 253.0
47.731923152 514.0
47.784444283 784.0
47.836965414 539.0
47.889486544 205.0
47.942007675 83.0
47.994528806 57.0
48.047049936 51.0
48.099571067 61.0
48.152092198 48.0
48.204613329 43.0
48.257134459 43.0
48.309655590 59.0
48.362176721 59.0
48.414697851 57.0
48.467218982 103.0
48.519740113 269.0
48.572261243 392.0
48.624782374 290.0
48.677303505 117.0
48.729824636 99.0
48.782345766 163.0
48.834866897 213.0
48.887388028 231.0
48.939909158 88.0
48.992430289 60.0
49.044951420 47.0
49.097472551 41.0
49.149993681 44.0
49.202514812 40.0
49.255035943 41.0
49.307557073 34.0
49.360078204 35.0
49.412599335 35.0
49.465120465 34.0
49.517641596 42.0
49.570162727 49.0
49.622683858 41.0
49.675204988 44.0
49.727726119 52.0
49.780247250 63.0
49.832768380 53.0
49.885289511 65.0
49.937810642 71.0
49.990331772 81.0
50.042852903 114.0
50.095374034 87.0
50.147895165 57.0
50.200416295 47.0
50.252937426 32.0
50.305458557 35.0
50.357979687 36.0
50.410500818 42.0
50.463021949 31.0
50.515543080 38.0
50.568064210 42.0
50.620585341 39.0
50.673106472 47.0
50.725627602 52.0
50.778148733 34.0
50.830669864 29.0
50.883190994 29.0
50.935712125 35.0
50.988233256 21.0
51.040754387 33.0
51.093275517 50.0
51.145796648 38.0
51.198317779 36.0
51.250838909 61.0
51.303360040 101.0
51.355881171 188.0
51.408402302 158.0
51.460923432 101.0
51.513444563 54.0
51.565965694 44.0
51.618486824 40.0
51.671007955 37.0
51.723529086 31.0
51.776050216 27.0
51.828571347 45.0
51.881092478 38.0
51.933613609 30.0
51.986134739 39.0
52.038655870 30.0
52.091177001 44.0
52.143698131 40.0
52.196219262 53.0
52.248740393 47.0
52.301261523 59.0
52.353782654 63.0
52.406303785 85.0
52.458824916 118.0
52.511346046 222.0
52.563867177 354.0
52.616388308 429.0
52.668909438 443.0
52.721430569 436.0
52.773951700 422.0
52.826472831 234.0
52.878993961 106.0
52.931515092 60.0
52.984036223 44.0
53.036557353 53.0
53.089078484 53.0
53.141599615 47.0
53.194120745 50.0
53.246641876 62.0
53.299163007 62.0
53.351684138 42.0
53.404205268 49.0
53.456726399 32.0
53.509247530 52.0
53.561768660 42.0
53.614289791 49.0
53.666810922 43.0
53.719332053 33.0
53.771853183 37.0
53.824374314 42.0
53.876895445 49.0
53.929416575 47.0
53.981937706 38.0
54.034458837 28.0
54.086979967 57.0
54.139501098 77.0
54.192022229 129.0
54.244543360 208.0
54.297064490 249.0
54.349585621 211.0
54.402106752 162.0
54.454627882 106.0
54.507149013 74.0
54.559670144 43.0
54.612191274 66.0
54.664712405 56.0
54.717233536 48.0
54.769754667 42.0
54.822275797 35.0
54.874796928 40.0
54.927318059 31.0
54.979839189 37.0
55.032360320 42.0
55.084881451 42.0
55.137402582 65.0
55.189923712 107.0
55.242444843 331.0
55.294965974 528.0
55.347487104 431.0
55.400008235 207.0
55.452529366 98.0
55.505050496 47.0
55.557571627 55.0
55.610092758 46.0
55.662613889 59.0
55.715135019 41.0
55.767656150 54.0
55.820177281 45.0
55.872698411 56.0
55.925219542 51.0
55.977740673 76.0
56.030261804 120.0
56.082782934 210.0
56.135304065 125.0
56.187825196 88.0
56.240346326 88.0
56.292867457 65.0
56.345388588 54.0
56.397909718 26.0
56.450430849 51.0
56.502951980 48.0
56.555473111 33.0
56.607994241 42.0
56.660515372 36.0
56.713036503 47.0
56.765557633 39.0
56.818078764 51.0
56.870599895 84.0
56.923121025 242.0
56.975642156 848.0
57.028163287 2008.0
57.080684418 3433.0
57.133205548 2066.0
57.185726679 449.0
57.238247810 104.0
57.290768940 52.0
57.343290071 47.0
57.395811202 46.0
57.448332333 38.0
57.500853463 37.0
57.553374594 38.0
57.605895725 44.0
57.658416855 56.0
57.710937986 64.0
57.763459117 63.0
57.815980247 64.0
57.868501378 65.0
57.921022509 51.0
57.973543640 47.0
58.026064770 63.0
58.078585901 76.0
58.131107032 81.0
58.183628162 161.0
58.236149293 256.0
58.288670424 277.0
58.341191555 259.0
58.393712685 231.0
58.446233816 226.0
58.498754947 212.0
58.551276077 130.0
58.603797208 51.0
58.656318339 38.0
58.708839469 42.0
58.761360600 34.0
58.813881731 47.0
58.866402862 47.0
58.918923992 38.0
58.971445123 41.0
59.023966254 41.0
59.076487384 35.0
59.129008515 43.0
59.181529646 30.0
59.234050776 55.0
59.286571907 92.0
59.339093038 93.0
59.391614169 77.0
59.444135299 58.0
59.496656430 44.0
59.549177561 47.0
59.601698691 45.0
59.654219822 34.0
59.706740953 42.0
59.759262084 24.0
59.811783214 32.0
59.864304345 45.0
59.916825476 36.0
59.969346606 78.0
60.021867737 112.0
60.074388868 110.0
60.126909998 99.0
60.179431129 60.0
60.231952260 43.0
60.284473391 54.0
60.336994521 52.0
60.389515652 49.0
60.442036783 65.0
60.494557913 105.0
60.547079044 141.0
60.599600175 175.0
60.652121306 182.0
60.704642436 233.0
60.757163567 294.0
60.809684698 359.0
60.862205828 461.0
60.914726959 455.0
60.967248090 274.0
61.019769220 162.0
61.072290351 79.0
61.124811482 56.0
61.177332613 56.0
61.229853743 57.0
61.282374874 42.0
61.334896005 43.0
61.387417135 45.0
61.439938266 32.0
61.492459397 40.0
61.544980527 42.0
61.597501658 32.0
61.650022789 36.0
61.702543920 32.0
61.755065050 30.0
61.807586181 34.0
61.860107312 37.0
61.912628442 30.0
61.965149573 25.0
62.017670704 34.0
62.070191835 39.0
62.122712965 45.0
62.175234096 45.0
62.227755227 26.0
62.280276357 36.0
62.332797488 41.0
62.385318619 36.0
62.437839749 39.0
62.490360880 42.0
62.542882011 43.0
62.595403142 98.0
62.647924272 165.0
62.700445403 242.0
62.752966534 192.0
62.805487664 95.0
62.858008795 78.0
62.910529926 68.0
62.963051057 80.0
63.015572187 76.0
63.068093318 76.0
63.120614449 61.0
63.173135579 53.0
63.225656710 63.0
63.278177841 96.0
63.330698971 139.0
63.383220102 141.0
63.435741233 91.0
63.488262364 71.0
63.540783494 59.0
63.593304625 74.0
63.645825756 53.0
63.698346886 43.0
63.750868017 26.0
63.803389148 26.0
63.855910278 25.0
63.908431409 25.0
63.960952540 43.0
64.013473671 27.0
64.065994801 35.0
64.118515932 32.0
64.171037063 51.0
64.223558193 33.0
64.276079324 38.0
64.328600455 29.0
64.381121586 26.0
64.433642716 52.0
64.486163847 81.0
64.538684978 118.0
64.591206108 83.0
64.643727239 65.0
64.696248370 48.0
64.748769500 31.0
64.801290631 44.0
64.853811762 42.0
64.906332893 56.0
64.958854023 48.0
65.011375154 31.0
65.063896285 31.0
65.116417415 32.0
65.168938546 48.0
65.221459677 48.0
65.273980808 68.0
65.326501938 67.0
65.379023069 113.0
65.431544200 146.0
65.484065330 110.0
65.536586461 81.0
65.589107592 31.0
65.641628722 40.0
65.694149853 39.0
65.746670984 37.0
65.799192115 39.0
65.851713245 54.0
65.904234376 44.0
65.956755507 34.0
66.009276637 36.0
66.061797768 39.0
66.114318899 42.0
66.166840029 48.0
66.219361160 46.0
66.271882291 40.0
66.324403422 39.0
66.376924552 30.0
66.429445683 28.0
66.481966814 33.0
66.534487944 48.0
66.587009075 59.0
66.639530206 76.0
66.692051337 90.0
66.744572467 84.0
66.797093598 55.0
66.849614729 42.0
66.902135859 41.0
66.954656990 36.0
67.007178121 32.0
67.059699251 26.0
67.112220382 32.0
67.164741513 28.0
67.217262644 33.0
67.269783774 32.0
67.322304905 25.0
67.374826036 31.0
67.427347166 34.0
67.479868297 50.0
67.532389428 48.0
67.584910559 37.0
67.637431689 32.0
67.689952820 40.0
67.742473951 32.0
67.794995081 32.0
67.847516212 28.0
67.900037343 33.0
67.952558473 34.0
68.005079604 46.0
68.057600735 33.0
68.110121866 46.0
68.162642996 74.0
68.215164127 83.0
68.267685258 63.0
68.320206388 49.0
68.372727519 51.0
68.425248650 22.0
68.477769780 28.0
68.530290911 34.0
68.582812042 23.0
68.635333173 28.0
68.687854303 27.0
68.740375434 32.0
68.792896565 39.0
68.845417695 33.0
68.897938826 36.0
68.950459957 55.0
69.002981088 112.0
69.055502218 113.0
69.108023349 80.0
69.160544480 56.0
69.213065610 99.0
69.265586741 132.0
69.318107872 253.0
69.370629002 340.0
69.423150133 246.0
69.475671264 129.0
69.528192395 100.0
69.580713525 76.0
69.633234656 62.0
69.685755787 37.0
69.738276917 49.0
69.790798048 78.0
69.843319179 86.0
69.895840310 64.0
69.948361440 71.0
70.000882571 120.0
70.053403702 91.0
70.105924832 70.0
70.158445963 48.0
70.210967094 34.0
70.263488224 44.0
70.316009355 45.0
70.368530486 50.0
70.421051617 75.0
70.473572747 89.0
70.526093878 132.0
70.578615009 130.0
70.631136139 53.0
70.683657270 67.0
70.736178401 45.0
70.788699531 46.0
70.841220662 44.0
70.893741793 29.0
70.946262924 39.0
70.998784054 33.0
71.051305185 26.0
71.103826316 31.0
71.156347446 39.0
71.208868577 34.0
71.261389708 21.0
71.313910839 26.0
71.366431969 19.0
71.418953100 19.0
71.471474231 32.0
71.523995361 23.0
71.576516492 34.0
71.629037623 18.0
71.681558753 16.0
71.734079884 24.0
71.786601015 22.0
71.839122146 21.0
71.891643276 18.0
71.944164407 27.0
71.996685538 24.0
72.049206668 39.0
72.101727799 12.0
72.154248930 40.0
72.206770060 17.0
72.259291191 25.0
72.311812322 38.0
72.364333453 19.0
72.416854583 24.0
72.469375714 33.0
72.521896845 31.0
72.574417975 44.0
72.626939106 54.0
72.679460237 86.0
72.731981368 99.0
72.784502498 121.0
72.837023629 97.0
72.889544760 104.0
72.942065890 79.0
72.994587021 47.0
73.047108152 29.0
73.099629282 41.0
73.152150413 41.0
73.204671544 28.0
73.257192675 43.0
73.309713805 29.0
73.362234936 27.0
73.414756067 32.0
73.467277197 25.0
73.519798328 28.0
73.572319459 38.0
73.624840590 21.0
73.677361720 27.0
73.729882851 30.0
73.782403982 31.0
73.834925112 48.0
73.887446243 27.0
73.939967374 34.0
73.992488504 29.0
74.045009635 32.0
74.097530766 25.0
74.150051897 34.0
74.202573027 30.0
74.255094158 31.0
74.307615289 39.0
74.360136419 33.0
74.412657550 40.0
74.465178681 46.0
74.517699811 61.0
74.570220942 57.0
74.622742073 84.0
74.675263204 60.0
74.727784334 56.0
74.780305465 41.0
74.832826596 25.0
74.885347726 30.0
74.937868857 26.0
74.990389988 41.0
75.042911119 46.0
75.095432249 30.0
75.147953380 39.0
75.200474511 35.0
75.252995641 27.0
75.305516772 35.0
75.358037903 24.0
75.410559033 35.0
75.463080164 25.0
75.515601295 24.0
75.568122426 22.0
75.620643556 32.0
75.673164687 27.0
75.725685818 19.0
75.778206948 25.0
75.830728079 25.0
75.883249210 22.0
75.935770341 31.0
75.988291471 29.0
76.040812602 19.0
76.093333733 30.0
76.145854863 29.0
76.198375994 33.0
76.250897125 39.0
76.303418255 50.0
76.355939386 43.0
76.408460517 48.0
76.460981648 62.0
76.513502778 78.0
76.566023909 123.0
76.618545040 142.0
76.671066170 114.0
76.723587301 70.0
76.776108432 62.0
76.828629562 47.0
76.881150693 28.0
76.933671824 37.0
76.986192955 32.0
77.038714085 32.0
77.091235216 43.0
77.143756347 41.0
77.196277477 56.0
77.248798608 50.0
77.301319739 38.0
77.353840870 37.0
77.406362000 30.0
77.458883131 35.0
77.511404262 41.0
77.563925392 26.0
77.616446523 27.0
77.668967654 30.0
77.721488784 29.0
77.774009915 18.0
77.826531046 41.0
77.879052177 31.0
77.931573307 29.0
77.984094438 36.0
78.036615569 34.0
78.089136699 35.0
78.141657830 39.0
78.194178961 39.0
78.246700092 69.0
78.299221222 68.0
78.351742353 60.0
78.404263484 37.0
78.456784614 36.0
78.509305745 26.0
78.561826876 25.0
78.614348006 21.0
78.666869137 33.0
78.719390268 38.0
78.771911399 34.0
78.824432529 41.0
78.876953660 43.0
78.929474791 58.0
78.981995921 102.0
79.034517052 225.0
79.087038183 290.0
79.139559313 223.0
79.192080444 127.0
79.244601575 47.0
79.297122706 37.0
79.349643836 48.0
79.402164967 39.0
79.454686098 64.0
79.507207228 67.0
79.559728359 49.0
79.612249490 43.0
79.664770621 46.0
79.717291751 39.0
79.769812882 31.0
79.822334013 36.0
79.874855143 30.0
79.927376274 35.0
79.979897405 44.0
80.032418535 29.0
80.084939666 39.0
80.137460797 63.0
80.189981928 67.0
80.242503058 44.0
80.295024189 52.0
80.347545320 50.0
80.400066450 45.0
80.452587581 30.0
80.505108712 22.0
80.557629843 27.0
80.610150973 33.0
80.662672104 28.0
80.715193235 18.0
80.767714365 28.0
80.820235496 37.0
80.872756627 28.0
80.925277757 36.0
80.977798888 22.0
81.030320019 44.0
81.082841150 65.0
81.135362280 92.0
81.187883411 81.0
81.240404542 84.0
81.292925672 60.0
81.345446803 85.0
81.397967934 105.0
81.450489064 71.0
81.503010195 48.0
81.555531326 29.0
81.608052457 36.0
81.660573587 26.0
81.713094718 32.0
81.765615849 36.0
81.818136979 22.0
81.870658110 23.0
81.923179241 32.0
81.975700372 38.0
82.028221502 40.0
82.080742633 36.0
82.133263764 37.0
82.185784894 32.0
82.238306025 21.0
82.290827156 39.0
82.343348286 29.0
82.395869417 37.0
82.448390548 36.0
82.500911679 29.0
82.553432809 29.0
82.605953940 27.0
82.658475071 36.0
82.710996201 33.0
82.763517332 29.0
82.816038463 34.0
82.868559594 25.0
82.921080724 28.0
82.973601855 27.0
83.026122986 23.0
83.078644116 28.0
83.131165247 33.0
83.183686378 31.0
83.236207508 43.0
83.288728639 43.0
83.341249770 36.0
83.393770901 57.0
83.446292031 34.0
83.498813162 40.0
83.551334293 36.0
83.603855423 29.0
83.656376554 39.0
83.708897685 24.0
83.761418815 31.0
83.813939946 38.0
83.866461077 34.0
83.918982208 60.0
83.971503338 54.0
84.024024469 64.0
84.076545600 37.0
84.129066730 42.0
84.181587861 32.0
84.234108992 25.0
84.286630123 32.0
84.339151253 23.0
84.391672384 33.0
84.444193515 23.0
84.496714645 24.0
84.549235776 17.0
84.601756907 29.0
84.654278037 18.0
84.706799168 33.0
84.759320299 45.0
84.811841430 44.0
84.864362560 49.0
84.916883691 65.0
84.969404822 84.0
85.021925952 98.0
85.074447083 74.0
85.126968214 47.0
85.179489345 39.0
85.232010475 36.0
85.284531606 30.0
85.337052737 35.0
85.389573867 24.0
85.442094998 41.0
85.494616129 36.0
85.547137259 26.0
85.599658390 31.0
85.652179521 44.0
85.704700652 32.0
85.757221782 26.0
85.809742913 23.0
85.862264044 22.0
85.914785174 40.0
85.967306305 33.0
86.019827436 31.0
86.072348566 25.0
86.124869697 30.0
86.177390828 51.0
86.229911959 54.0
86.282433089 70.0
86.334954220 72.0
86.387475351 66.0
86.439996481 45.0
86.492517612 25.0
86.545038743 34.0
86.597559874 45.0
86.650081004 39.0
86.702602135 26.0
86.755123266 39.0
86.807644396 27.0
86.860165527 32.0
86.912686658 49.0
86.965207788 42.0
87.017728919 64.0
87.070250050 57.0
87.122771181 49.0
87.175292311 47.0
87.227813442 34.0
87.280334573 30.0
87.332855703 48.0
87.385376834 53.0
87.437897965 57.0
87.490419096 63.0
87.542940226 68.0
87.595461357 56.0
87.647982488 45.0
87.700503618 47.0
87.753024749 58.0
87.805545880 70.0
87.858067010 73.0
87.910588141 34.0
87.963109272 35.0
88.015630403 23.0
88.068151533 22.0
88.120672664 31.0
88.173193795 30.0
88.225714925 40.0
88.278236056 30.0
88.330757187 35.0
88.383278317 47.0
88.435799448 57.0
88.488320579 66.0
88.540841710 55.0
88.593362840 52.0
88.645883971 35.0
88.698405102 37.0
88.750926232 43.0
88.803447363 24.0
88.855968494 47.0
88.908489625 36.0
88.961010755 36.0
89.013531886 53.0
89.066053017 47.0
89.118574147 40.0
89.171095278 45.0
89.223616409 46.0
89.276137539 52.0
89.328658670 52.0
89.381179801 56.0
89.433700932 42.0
89.486222062 37.0
89.538743193 32.0
89.591264324 25.0
89.643785454 36.0
89.696306585 22.0
89.748827716 27.0
89.801348847 35.0
89.853869977 42.0
89.906391108 49.0
89.958912239 68.0
90.011433369 56.0
90.063954500 69.0
90.116475631 94.0
90.168996761 104.0
90.221517892 72.0
90.274039023 44.0
90.326560154 26.0
90.379081284 36.0
90.431602415 42.0
90.484123546 45.0
90.536644676 40.0
90.589165807 34.0
90.641686938 48.0
90.694208068 46.0
90.746729199 40.0
90.799250330 36.0
90.851771461 36.0
90.904292591 33.0
90.956813722 27.0
91.009334853 25.0
91.061855983 34.0
91.114377114 34.0
91.166898245 34.0
91.219419376 18.0
91.271940506 56.0
91.324461637 44.0
91.376982768 49.0
91.429503898 63.0
91.482025029 44.0
91.534546160 42.0
91.587067290 20.0
91.639588421 31.0
91.692109552 45.0
91.744630683 35.0
91.797151813 37.0
91.849672944 42.0
91.902194075 51.0
91.954715205 32.0
92.007236336 44.0
92.059757467 78.0
92.112278598 89.0
92.164799728 108.0
92.217320859 104.0
92.269841990 56.0
92.322363120 47.0
92.374884251 35.0
92.427405382 26.0
92.479926512 24.0
92.532447643 40.0
92.584968774 56.0
92.637489905 52.0
92.690011035 69.0
92.742532166 63.0
92.795053297 41.0
92.847574427 36.0
92.900095558 40.0
92.952616689 28.0
93.005137819 39.0
93.057658950 50.0
93.110180081 27.0
93.162701212 44.0
93.215222342 35.0
93.267743473 32.0
93.320264604 44.0
93.372785734 50.0
93.425306865 48.0
93.477827996 28.0
93.530349127 35.0
93.582870257 23.0
93.635391388 27.0
93.687912519 31.0
93.740433649 23.0
93.792954780 42.0
93.845475911 36.0
93.897997041 28.0
93.950518172 33.0
94.003039303 34.0
94.055560434 36.0
94.108081564 24.0
94.160602695 33.0
94.213123826 32.0
94.265644956 41.0
94.318166087 42.0
94.370687218 39.0
94.423208348 45.0
94.475729479 47.0
94.528250610 45.0
94.580771741 57.0
94.633292871 69.0
94.685814002 82.0
94.738335133 102.0
94.790856263 105.0
94.843377394 103.0
94.895898525 71.0
94.948419656 50.0
95.000940786 47.0
95.053461917 36.0
95.105983048 44.0
95.158504178 27.0
95.211025309 34.0
95.263546440 42.0
95.316067570 54.0
95.368588701 61.0
95.421109832 68.0
95.473630963 66.0
95.526152093 54.0
95.578673224 50.0
95.631194355 38.0
95.683715485 33.0
95.736236616 36.0
95.788757747 20.0
95.841278878 26.0
95.893800008 30.0
95.946321139 27.0
95.998842270 34.0
96.051363400 29.0
96.103884531 27.0
96.156405662 48.0
96.208926792 58.0
96.261447923 55.0
96.313969054 47.0
96.366490185 70.0
96.419011315 54.0
96.471532446 43.0
96.524053577 53.0
96.576574707 78.0
96.629095838 83.0
96.681616969 117.0
96.734138099 152.0
96.786659230 122.0
96.839180361 104.0
96.891701492 76.0
96.944222622 53.0
96.996743753 50.0
97.049264884 51.0
97.101786014 52.0
97.154307145 85.0
97.206828276 78.0
97.259349407 88.0
97.311870537 77.0
97.364391668 59.0
97.416912799 44.0
97.469433929 42.0
97.521955060 37.0
97.574476191 35.0
97.626997321 35.0
97.679518452 31.0
97.732039583 30.0
97.784560714 23.0
97.837081844 41.0
97.889602975 42.0
97.942124106 56.0
97.994645236 82.0
98.047166367 57.0
98.099687498 51.0
98.152208629 39.0
98.204729759 42.0
98.257250890 43.0
98.309772021 35.0
98.362293151 33.0
98.414814282 37.0
98.467335413 32.0
98.519856543 44.0
98.572377674 71.0
98.624898805 84.0
98.677419936 88.0
98.729941066 48.0
98.782462197 43.0
98.834983328 34.0
98.887504458 38.0
98.940025589 40.0
98.992546720 48.0
99.045067850 57.0
99.097588981 78.0
99.150110112 75.0
99.202631243 62.0
99.255152373 49.0
99.307673504 50.0
99.360194635 30.0
99.412715765 47.0
99.465236896 33.0
99.517758027 30.0
99.570279158 26.0
99.622800288 26.0
99.675321419 32.0
99.727842550 28.0
99.780363680 38.0
99.832884811 27.0
99.885405942 30.0
99.937927072 35.0
99.990448203 32.0
100.042969334 30.0
100.095490465 24.0
100.148011595 19.0
100.200532726 36.0
100.253053857 31.0
100.305574987 27.0
100.358096118 34.0
100.410617249 27.0
100.463138380 27.0
100.515659510 33.0
100.568180641 26.0
100.620701772 23.0
100.673222902 26.0
100.725744033 38.0
100.778265164 36.0
100.830786294 39.0
100.883307425 31.0
100.935828556 47.0
100.988349687 45.0
101.040870817 53.0
101.093391948 33.0
101.145913079 32.0
101.198434209 32.0
101.250955340 44.0
101.303476471 44.0
101.355997601 54.0
101.408518732 55.0
101.461039863 52.0
101.513560994 46.0
101.566082124 40.0
101.618603255 37.0
101.671124386 39.0
101.723645516 47.0
101.776166647 59.0
101.828687778 52.0
101.881208909 33.0
101.933730039 38.0
101.986251170 31.0
102.038772301 35.0
102.091293431 34.0
102.143814562 29.0
102.196335693 31.0
102.248856823 34.0
102.301377954 29.0
102.353899085 30.0
102.406420216 34.0
102.458941346 43.0
102.511462477 29.0
102.563983608 45.0
102.616504738 27.0
102.669025869 32.0
102.721547000 26.0
102.774068131 25.0
102.826589261 21.0
102.879110392 33.0
102.931631523 21.0
102.984152653 27.0
103.036673784 33.0
103.089194915 32.0
103.141716045 30.0
103.194237176 37.0
103.246758307 28.0
103.299279438 40.0
103.351800568 32.0
103.404321699 36.0
103.456842830 44.0
103.509363960 35.0
103.561885091 50.0
103.614406222 42.0
103.666927352 27.0
103.719448483 29.0
103.771969614 34.0
103.824490745 37.0
103.877011875 31.0
103.929533006 36.0
103.982054137 27.0
104.034575267 26.0
104.087096398 21.0
104.139617529 29.0
104.192138660 23.0
104.244659790 29.0
104.297180921 28.0
104.349702052 41.0
104.402223182 45.0
104.454744313 17.0
104.507265444 35.0
104.559786574 17.0
104.612307705 23.0
104.664828836 29.0
104.717349967 29.0
104.769871097 29.0
104.822392228 25.0
104.874913359 29.0
104.927434489 20.0
104.979955620 32.0
105.032476751 28.0
105.084997882 24.0
105.137519012 29.0
105.190040143 22.0
105.242561274 32.0
105.295082404 20.0
105.347603535 25.0
105.400124666 25.0
105.452645796 26.0
105.505166927 24.0
105.557688058 44.0
105.610209189 32.0
105.662730319 36.0
105.715251450 32.0
105.767772581 32.0
105.820293711 26.0
105.872814842 28.0
105.925335973 30.0
105.977857103 39.0
106.030378234 35.0
106.082899365 40.0
106.135420496 33.0
106.187941626 53.0
106.240462757 40.0
106.292983888 42.0
106.345505018 38.0
106.398026149 26.0
106.450547280 23.0
106.503068411 34.0
106.555589541 36.0
106.608110672 25.0
106.660631803 27.0
106.713152933 28.0
106.765674064 37.0
106.818195195 29.0
106.870716325 26.0
106.923237456 30.0
106.975758587 29.0
107.028279718 20.0
107.080800848 20.0
107.133321979 25.0
107.185843110 38.0
107.238364240 41.0
107.290885371 42.0
107.343406502 38.0
107.395927633 37.0
107.448448763 24.0
107.500969894 18.0
107.553491025 22.0
107.606012155 34.0
107.658533286 33.0
107.711054417 21.0
107.763575547 18.0
107.816096678 24.0
107.868617809 23.0
107.921138940 25.0
107.973660070 38.0
108.026181201 12.0
108.078702332 35.0
108.131223462 42.0
108.183744593 26.0
108.236265724 35.0
108.288786854 22.0
108.341307985 23.0
108.393829116 14.0
108.446350247 18.0
108.498871377 33.0
108.551392508 33.0
108.603913639 22.0
108.656434769 20.0
108.708955900 19.0
108.761477031 27.0
108.813998162 28.0
108.866519292 26.0
108.919040423 29.0
108.971561554 27.0
109.024082684 22.0
109.076603815 29.0
109.129124946 19.0
109.181646076 37.0
109.234167207 19.0
109.286688338 32.0
109.339209469 27.0
109.391730599 26.0
109.444251730 21.0
109.496772861 35.0
109.549293991 29.0
109.601815122 36.0
109.654336253 25.0
109.706857384 34.0
109.759378514 39.0
109.811899645 32.0
109.864420776 22.0
109.916941906 30.0
109.969463037 31.0
110.021984168 30.0
110.074505298 36.0
110.127026429 39.0
110.179547560 36.0
110.232068691 34.0
110.284589821 24.0
110.337110952 29.0
110.389632083 27.0
110.442153213 30.0
110.494674344 36.0
110.547195475 46.0
110.599716605 54.0
110.652237736 36.0
110.704758867 35.0
110.757279998 34.0
110.809801128 33.0
110.862322259 35.0
110.914843390 30.0
110.967364520 26.0
111.019885651 30.0
111.072406782 29.0
111.124927913 31.0
111.177449043 37.0
111.229970174 65.0
111.282491305 62.0
111.335012435 74.0
111.387533566 90.0
111.440054697 69.0
111.492575827 67.0
111.545096958 61.0
111.597618089 37.0
111.650139220 30.0
111.702660350 38.0
111.755181481 30.0
111.807702612 22.0
111.860223742 27.0
111.912744873 22.0
111.965266004 41.0
112.017787135 39.0
112.070308265 40.0
112.122829396 50.0
112.175350527 46.0
112.227871657 52.0
112.280392788 47.0
112.332913919 49.0
112.385435049 61.0
112.437956180 54.0
112.490477311 37.0
112.542998442 39.0
112.595519572 37.0
112.648040703 26.0
112.700561834 32.0
112.753082964 47.0
112.805604095 33.0
112.858125226 36.0
112.910646356 43.0
112.963167487 67.0
113.015688618 65.0
113.068209749 59.0
113.120730879 44.0
113.173252010 34.0
113.225773141 31.0
113.278294271 31.0
113.330815402 37.0
113.383336533 31.0
113.435857664 26.0
113.488378794 20.0
113.540899925 18.0
113.593421056 34.0
113.645942186 26.0
113.698463317 17.0
113.750984448 27.0
113.803505578 28.0
113.856026709 34.0
113.908547840 19.0
113.961068971 25.0
114.013590101 29.0
114.066111232 24.0
114.118632363 35.0
114.171153493 38.0
114.223674624 33.0
114.276195755 30.0
114.328716886 32.0
114.381238016 33.0
114.433759147 31.0
114.486280278 47.0
114.538801408 30.0
114.591322539 26.0
114.643843670 33.0
114.696364800 25.0
114.748885931 28.0
114.801407062 21.0
114.853928193 29.0
114.906449323 36.0
114.958970454 27.0
115.011491585 44.0
115.064012715 22.0
115.116533846 20.0
115.169054977 25.0
115.221576107 20.0
115.274097238 36.0
115.326618369 18.0
115.379139500 18.0
115.431660630 32.0
115.484181761 27.0
115.536702892 32.0
115.589224022 37.0
115.641745153 33.0
115.694266284 24.0
115.746787415 32.0
115.799308545 29.0
115.851829676 29.0
115.904350807 20.0
115.956871937 29.0
116.009393068 36.0
116.061914199 28.0
116.114435329 18.0
116.166956460 26.0
116.219477591 33.0
116.271998722 8.0
116.324519852 18.0
116.377040983 20.0
116.429562114 23.0
116.482083244 23.0
116.534604375 15.0
116.587125506 23.0
116.639646637 34.0
116.692167767 27.0
116.744688898 28.0
116.797210029 29.0
116.849731159 34.0
116.902252290 28.0
116.954773421 28.0
117.007294551 34.0
117.059815682 31.0
117.112336813 29.0
117.164857944 27.0
117.217379074 27.0
117.269900205 19.0
117.322421336 24.0
117.374942466 22.0
117.427463597 24.0
117.479984728 23.0
117.532505858 26.0
117.585026989 24.0
117.637548120 23.0
117.690069251 21.0
117.742590381 30.0
117.795111512 26.0
117.847632643 22.0
117.900153773 14.0
117.952674904 28.0
118.005196035 24.0
118.057717166 25.0
118.110238296 21.0
118.162759427 24.0
118.215280558 20.0
118.267801688 30.0
118.320322819 38.0
118.372843950 28.0
118.425365080 21.0
118.477886211 24.0
118.530407342 35.0
118.582928473 33.0
118.635449603 24.0
118.687970734 21.0
118.740491865 26.0
118.793012995 23.0
118.845534126 24.0
118.898055257 22.0
118.950576387 23.0
119.003097518 25.0
119.055618649 16.0
119.108139780 26.0
119.160660910 17.0
119.213182041 17.0
119.265703172 28.0
119.318224302 17.0
119.370745433 25.0
119.423266564 27.0
119.475787695 30.0
119.528308825 25.0
119.580829956 23.0
119.633351087 30.0
119.685872217 18.0
119.738393348 19.0
119.790914479 27.0
119.843435609 19.0
119.895956740 34.0
119.948477871 32.0
120.000999002 24.0
120.053520132 15.0
120.106041263 28.0
120.158562394 30.0
120.211083524 23.0
120.263604655 28.0
120.316125786 23.0
120.368646917 19.0
120.421168047 25.0
120.473689178 36.0
120.526210309 39.0
120.578731439 19.0
120.631252570 27.0
120.683773701 21.0
120.736294831 28.0
120.788815962 24.0
120.841337093 27.0
120.893858224 32.0
120.946379354 25.0
120.998900485 37.0
121.051421616 32.0
121.103942746 17.0
121.156463877 23.0
121.208985008 31.0
121.261506138 46.0
121.314027269 34.0
121.366548400 34.0
121.419069531 21.0
121.471590661 30.0
121.524111792 28.0
121.576632923 31.0
121.629154053 28.0
121.681675184 39.0
121.734196315 29.0
121.786717446 46.0
121.839238576 28.0
121.891759707 34.0
121.944280838 32.0
121.996801968 35.0
122.049323099 35.0
122.101844230 32.0
122.154365360 33.0
122.206886491 42.0
122.259407622 29.0
122.311928753 30.0
122.364449883 24.0
122.416971014 22.0
122.469492145 39.0
122.522013275 39.0
122.574534406 20.0
122.627055537 30.0
122.679576668 27.0
122.732097798 27.0
122.784618929 37.0
122.837140060 20.0
122.889661190 20.0
122.942182321 31.0
122.994703452 24.0
123.047224582 25.0
123.099745713 25.0
123.152266844 27.0
123.204787975 22.0
123.257309105 32.0
123.309830236 31.0
123.362351367 25.0
123.414872497 40.0
123.467393628 25.0
123.519914759 25.0
123.572435889 30.0
123.624957020 20.0
123.677478151 29.0
123.729999282 23.0
123.782520412 28.0
123.835041543 32.0
123.887562674 39.0
123.940083804 30.0
123.992604935 31.0
124.045126066 31.0
124.097647197 30.0
124.150168327 22.0
124.202689458 22.0
124.255210589 17.0
124.307731719 31.0
124.360252850 30.0
124.412773981 37.0
124.465295111 34.0
124.517816242 28.0
124.570337373 32.0
124.622858504 38.0
124.675379634 25.0
124.727900765 29.0
124.780421896 31.0
124.832943026 25.0
124.885464157 28.0
124.937985288 35.0
124.990506419 36.0
125.043027549 33.0
125.095548680 32.0
125.148069811 34.0
125.200590941 36.0
125.253112072 28.0
125.305633203 41.0
125.358154333 42.0
125.410675464 27.0
125.463196595 33.0
125.515717726 33.0
125.568238856 31.0
125.620759987 26.0
125.673281118 33.0
125.725802248 32.0
125.778323379 24.0
125.830844510 30.0
125.883365640 29.0
125.935886771 30.0
125.988407902 29.0
126.040929033 24.0
126.093450163 24.0
126.145971294 15.0
126.198492425 28.0
126.251013555 20.0
126.303534686 28.0
126.356055817 20.0
126.408576948 29.0
126.461098078 27.0
126.513619209 30.0
126.566140340 25.0
126.618661470 25.0
126.671182601 27.0
126.723703732 18.0
126.776224862 26.0
126.828745993 24.0
126.881267124 23.0
126.933788255 25.0
126.986309385 23.0
127.038830516 29.0
127.091351647 21.0
127.143872777 21.0
127.196393908 23.0
127.248915039 25.0
127.301436170 27.0
127.353957300 34.0
127.406478431 32.0
127.458999562 28.0
127.511520692 27.0
127.564041823 15.0
127.616562954 24.0
127.669084084 30.0
127.721605215 21.0
127.774126346 21.0
127.826647477 25.0
127.879168607 32.0
127.931689738 20.0
127.984210869 25.0
128.036731999 36.0
128.089253130 25.0
128.141774261 21.0
128.194295391 31.0
128.246816522 29.0
128.299337653 19.0
128.351858784 30.0
128.404379914 23.0
128.456901045 23.0
128.509422176 29.0
128.561943306 22.0
128.614464437 29.0
128.666985568 22.0
128.719506699 27.0
128.772027829 25.0
128.824548960 35.0
128.877070091 24.0
128.929591221 29.0
128.982112352 36.0
129.034633483 29.0
129.087154613 27.0
129.139675744 28.0
129.192196875 19.0
129.244718006 30.0
129.297239136 20.0
129.349760267 23.0
129.402281398 29.0
129.454802528 32.0
129.507323659 21.0
129.559844790 28.0
129.612365921 23.0
129.664887051 24.0
129.717408182 25.0
129.769929313 34.0
129.822450443 39.0
129.874971574 24.0
129.927492705 33.0
129.980013835 31.0
130.032534966 22.0
130.085056097 30.0
130.137577228 28.0
130.190098358 25.0
130.242619489 16.0
130.295140620 29.0
130.347661750 25.0
130.400182881 23.0
130.452704012 36.0
130.505225142 26.0
130.557746273 24.0
130.610267404 20.0
130.662788535 20.0
130.715309665 27.0
130.767830796 36.0
130.820351927 22.0
130.872873057 22.0
130.925394188 25.0
130.977915319 28.0
131.030436450 36.0
131.082957580 26.0
131.135478711 26.0
131.187999842 33.0
131.240520972 25.0
131.293042103 26.0
131.345563234 24.0
131.398084364 35.0
131.450605495 25.0
131.503126626 34.0
131.555647757 26.0
131.608168887 42.0
131.660690018 40.0
131.713211149 38.0
131.765732279 23.0
131.818253410 35.0
131.870774541 30.0
131.923295672 26.0
131.975816802 38.0
132.028337933 32.0
132.080859064 23.0
132.133380194 26.0
132.185901325 38.0
132.238422456 28.0
132.290943586 30.0
132.343464717 27.0
132.395985848 24.0
132.448506979 29.0
132.501028109 29.0
132.553549240 28.0
132.606070371 21.0
132.658591501 18.0
132.711112632 25.0
132.763633763 35.0
132.816154893 17.0
132.868676024 22.0
132.921197155 32.0
132.973718286 31.0
133.026239416 28.0
133.078760547 29.0
133.131281678 27.0
133.183802808 22.0
133.236323939 19.0
133.288845070 26.0
133.341366201 25.0
133.393887331 26.0
133.446408462 34.0
133.498929593 26.0
133.551450723 17.0
133.603971854 27.0
133.656492985 25.0
133.709014115 24.0
133.761535246 32.0
133.814056377 25.0
133.866577508 23.0
133.919098638 34.0
133.971619769 31.0
134.024140900 32.0
134.076662030 20.0
134.129183161 36.0
134.181704292 29.0
134.234225423 21.0
134.286746553 31.0
134.339267684 24.0
134.391788815 26.0
134.444309945 35.0
134.496831076 34.0
134.549352207 22.0
134.601873337 41.0
134.654394468 45.0
134.706915599 27.0
134.759436730 25.0
134.811957860 28.0
134.864478991 26.0
134.917000122 32.0
134.969521252 21.0
135.022042383 29.0
135.074563514 31.0
135.127084644 26.0
135.179605775 39.0
135.232126906 23.0
135.284648037 28.0
135.337169167 34.0
135.389690298 34.0
135.442211429 25.0
135.494732559 29.0
135.547253690 30.0
135.599774821 18.0
135.652295952 26.0
135.704817082 24.0
135.757338213 31.0
135.809859344 26.0
135.862380474 21.0
135.914901605 25.0
135.967422736 26.0
136.019943866 23.0
136.072464997 38.0
136.124986128 22.0
136.177507259 34.0
136.230028389 33.0
136.282549520 37.0
136.335070651 44.0
136.387591781 46.0
136.440112912 37.0
136.492634043 30.0
136.545155174 35.0
136.597676304 29.0
136.650197435 29.0
136.702718566 33.0
136.755239696 30.0
136.807760827 19.0
136.860281958 32.0
136.912803088 20.0
136.965324219 26.0
137.017845350 27.0
137.070366481 23.0
137.122887611 23.0
137.175408742 27.0
137.227929873 31.0
137.280451003 37.0
137.332972134 30.0
137.385493265 39.0
137.438014395 19.0
137.490535526 30.0
137.543056657 36.0
137.595577788 29.0
137.648098918 40.0
137.700620049 33.0
137.753141180 29.0
137.805662310 30.0
137.858183441 33.0
137.910704572 29.0
137.963225703 33.0
138.015746833 27.0
138.068267964 30.0
138.120789095 29.0
138.173310225 33.0
138.225831356 27.0
138.278352487 35.0
138.330873617 30.0
138.383394748 31.0
138.435915879 23.0
138.488437010 21.0
138.540958140 27.0
138.593479271 25.0
138.646000402 22.0
138.698521532 21.0
138.751042663 35.0
138.803563794 26.0
138.856084925 29.0
138.908606055 18.0
138.961127186 23.0
139.013648317 24.0
139.066169447 31.0
139.118690578 28.0
139.171211709 22.0
139.223732839 24.0
139.276253970 19.0
139.328775101 32.0
139.381296232 26.0
139.433817362 28.0
139.486338493 25.0
139.538859624 25.0
139.591380754 16.0
139.643901885 29.0
139.696423016 23.0
139.748944146 32.0
139.801465277 35.0
139.853986408 36.0
139.906507539 29.0
139.959028669 28.0
140.011549800 20.0
