44.56800	1307.30
45.36760	1304.80
46.16700	1309.40
46.96630	1304.90
47.76560	1306.00
48.56470	1305.60
49.36370	1303.40
50.16250	1307.30
50.96130	1305.10
51.75990	1312.70
52.55850	1310.80
53.35690	1309.30
54.15520	1308.60
54.95340	1310.10
55.75140	1307.50
56.54940	1316.80
57.34720	1310.30
58.14490	1310.40
58.94250	1311.90
59.74000	1322.60
60.53740	1322.00
61.33470	1323.20
62.13180	1323.50
62.92890	1325.20
63.72580	1321.90
64.52260	1335.20
65.31930	1331.60
66.11580	1334.00
66.91230	1341.30
67.70860	1346.00
68.50490	1352.60
69.30100	1352.10
70.09700	1351.90
70.89290	1366.30
71.68860	1372.60
72.48430	1375.40
73.27980	1371.60
74.07530	1373.90
74.87060	1382.70
75.66580	1397.90
76.46090	1397.40
77.25580	1383.70
78.05070	1382.40
78.84540	1379.40
79.64000	1375.50
80.43460	1376.20
81.22900	1375.10
82.02320	1371.40
82.81740	1385.30
83.61150	1400.20
84.40540	1394.80
85.19920	1387.20
85.99300	1373.80
86.78660	1373.20
87.58000	1370.90
88.37340	1366.50
89.16670	1371.20
89.95980	1372.50
90.75290	1382.80
91.54580	1393.90
92.33860	1395.00
93.13130	1376.30
93.92380	1377.50
94.71630	1380.00
95.50870	1384.60
96.30090	1383.50
97.09300	1375.40
97.88500	1372.40
98.67690	1384.40
99.46870	1386.70
100.26000	1387.00
101.05200	1386.80
101.84300	1383.80
102.63500	1378.60
103.42600	1383.30
104.21700	1384.80
105.00800	1385.20
105.79900	1396.10
106.59000	1405.20
107.38000	1410.30
108.17100	1401.90
108.96100	1397.60
109.75200	1399.60
110.54200	1383.20
111.33200	1392.40
112.12200	1385.20
112.91200	1391.00
113.70100	1392.60
114.49100	1386.60
115.28100	1393.10
116.07000	1405.90
116.85900	1400.30
117.64800	1406.00
118.43800	1409.00
119.22700	1406.80
120.01500	1405.30
120.80400	1408.50
121.59300	1418.10
122.38100	1423.50
123.17000	1436.80
123.95800	1439.10
124.74600	1432.30
125.53400	1439.90
126.32200	1424.20
127.11000	1431.00
127.89800	1436.90
128.68500	1444.00
129.47300	1443.70
130.26000	1447.50
131.04700	1451.30
131.83500	1454.40
132.62200	1450.00
133.40900	1456.60
134.19500	1463.80
134.98200	1461.70
135.76900	1455.60
136.55500	1468.30
137.34200	1466.10
138.12800	1457.60
138.91400	1469.70
139.70000	1478.30
140.48600	1479.90
141.27200	1488.20
142.05700	1477.00
142.84300	1476.20
143.62900	1475.70
144.41400	1487.30
145.19900	1488.80
145.98400	1481.10
146.76900	1499.30
147.55400	1514.60
148.33900	1509.20
149.12400	1505.80
149.90800	1509.60
150.69300	1500.00
151.47700	1499.70
152.26100	1501.50
153.04600	1488.30
153.83000	1492.50
154.61400	1484.30
155.39700	1481.70
156.18100	1477.20
156.96500	1471.60
157.74800	1460.50
158.53200	1475.50
159.31500	1471.50
160.09800	1469.90
160.88100	1463.90
161.66400	1463.20
162.44700	1463.40
163.22900	1458.70
164.01200	1466.70
164.79400	1461.40
165.57700	1454.60
166.35900	1462.90
167.14100	1464.20
167.92300	1458.50
168.70500	1464.60
169.48700	1457.10
170.26900	1466.00
171.05000	1454.50
171.83200	1470.00
172.61300	1473.80
173.39400	1470.80
174.17600	1479.90
174.95700	1470.90
175.73800	1487.30
176.51800	1498.60
177.29900	1501.70
178.08000	1500.30
178.86000	1494.30
179.64100	1490.70
180.42100	1490.10
181.20100	1487.30
181.98100	1481.80
182.76100	1487.40
183.54100	1493.10
184.32100	1492.60
185.10000	1489.40
185.88000	1492.60
186.65900	1500.80
187.43800	1507.50
188.21800	1500.70
188.99700	1505.20
189.77600	1503.50
190.55400	1504.20
191.33300	1502.10
192.11200	1491.40
192.89000	1489.30
193.66900	1485.90
194.44700	1479.40
195.22500	1481.60
196.00300	1470.60
196.78100	1471.80
197.55900	1475.10
198.33700	1460.30
199.11400	1464.60
199.89200	1470.10
200.66900	1458.40
201.44700	1479.40
202.22400	1479.50
203.00100	1468.70
203.77800	1464.00
204.55500	1462.40
205.33200	1468.20
206.10800	1474.30
206.88500	1471.70
207.66100	1476.30
208.43800	1480.40
209.21400	1472.50
209.99000	1476.70
210.76600	1468.70
211.54200	1465.20
212.31800	1469.20
213.09300	1465.00
213.86900	1468.50
214.64400	1461.30
215.42000	1464.00
216.19500	1458.30
216.97000	1470.00
217.74500	1449.70
218.52000	1460.60
219.29500	1467.50
220.06900	1453.10
220.84400	1468.50
221.61800	1451.40
222.39300	1441.90
223.16700	1450.70
223.94100	1456.50
224.71500	1452.50
225.48900	1456.60
226.26300	1452.80
227.03700	1447.90
227.81000	1452.50
228.58400	1457.30
229.35700	1444.80
230.13100	1449.70
230.90400	1446.60
231.67700	1456.20
232.45000	1441.40
233.22300	1441.60
233.99500	1446.40
234.76800	1445.30
235.54100	1448.80
236.31300	1444.70
237.08500	1431.90
237.85700	1441.40
238.63000	1439.30
239.40200	1438.30
240.17300	1437.20
240.94500	1434.00
241.71700	1433.80
242.48800	1431.60
243.26000	1435.80
244.03100	1435.80
244.80200	1436.80
245.57400	1431.60
246.34500	1436.00
247.11600	1432.10
247.88600	1440.90
248.65700	1437.20
249.42800	1431.10
250.19800	1439.10
250.96800	1428.60
251.73900	1431.20
252.50900	1436.40
253.27900	1430.90
254.04900	1435.50
254.81900	1434.90
255.58800	1427.30
256.35800	1429.10
257.12800	1421.40
257.89700	1431.50
258.66600	1433.30
259.43600	1428.20
260.20500	1423.40
260.97400	1419.10
261.74300	1430.50
262.51100	1423.10
263.28000	1422.00
264.04800	1428.50
264.81700	1435.80
265.58500	1428.90
266.35400	1424.30
267.12200	1418.30
267.89000	1424.80
268.65800	1422.80
269.42500	1417.90
270.19300	1417.70
270.96100	1424.00
271.72800	1418.10
272.49600	1419.70
273.26300	1425.10
274.03000	1416.60
274.79700	1425.90
275.56400	1417.30
276.33100	1423.80
277.09800	1420.10
277.86400	1425.10
278.63100	1414.90
279.39700	1421.30
280.16400	1415.90
280.93000	1424.70
281.69600	1414.00
282.46200	1417.10
283.22800	1432.40
283.99400	1430.20
284.75900	1426.50
285.52500	1428.60
286.29000	1432.10
287.05600	1426.50
287.82100	1425.00
288.58600	1427.20
289.35100	1419.40
290.11600	1424.30
290.88100	1410.30
291.64600	1424.10
292.41000	1409.80
293.17500	1418.30
293.93900	1424.70
294.70300	1419.70
295.46800	1423.20
296.23200	1412.60
296.99600	1422.10
297.76000	1419.60
298.52300	1427.80
299.28700	1418.20
300.05100	1419.60
300.81400	1420.70
301.57700	1422.90
302.34100	1429.50
303.10400	1425.80
303.86700	1426.20
304.63000	1426.20
305.39300	1429.80
306.15500	1421.70
306.91800	1429.10
307.68000	1430.00
308.44300	1430.50
309.20500	1429.30
309.96700	1427.80
310.72900	1440.00
311.49100	1436.10
312.25300	1433.70
313.01500	1431.90
313.77700	1442.80
314.53800	1435.30
315.30000	1443.10
316.06100	1436.30
316.82200	1440.20
317.58400	1442.30
318.34500	1444.50
319.10600	1448.50
319.86600	1441.90
320.62700	1441.70
321.38800	1438.90
322.14800	1453.30
322.90900	1444.00
323.66900	1443.40
324.42900	1452.40
325.18900	1447.10
325.94900	1446.80
326.70900	1441.90
327.46900	1443.50
328.22900	1450.40
328.98800	1450.00
329.74800	1454.40
330.50700	1455.60
331.26600	1451.20
332.02600	1460.80
332.78500	1456.40
333.54400	1457.10
334.30200	1464.90
335.06100	1454.80
335.82000	1458.90
336.57800	1456.90
337.33700	1469.90
338.09500	1460.00
338.85300	1464.90
339.61100	1467.00
340.36900	1466.10
341.12700	1466.70
341.88500	1474.30
342.64300	1476.10
343.40100	1477.30
344.15800	1473.40
344.91500	1471.60
345.67300	1469.70
346.43000	1473.70
347.18700	1486.50
347.94400	1477.40
348.70100	1479.70
349.45800	1484.10
350.21400	1481.60
350.97100	1485.20
351.72700	1494.60
352.48400	1489.40
353.24000	1481.30
353.99600	1502.40
354.75200	1500.70
355.50800	1503.50
356.26400	1503.90
357.02000	1518.80
357.77500	1509.00
358.53100	1501.50
359.28600	1507.20
360.04200	1535.30
360.79700	1529.30
361.55200	1522.60
362.30700	1532.70
363.06200	1536.20
363.81700	1546.50
364.57100	1554.50
365.32600	1558.00
366.08000	1559.30
366.83500	1583.20
367.58900	1590.30
368.34300	1601.00
369.09700	1622.30
369.85100	1636.80
370.60500	1658.40
371.35900	1684.50
372.11300	1710.30
372.86600	1765.80
373.62000	1829.10
374.37300	1900.80
375.12700	2004.10
375.88000	2146.60
376.63300	2377.70
377.38600	2715.50
378.13900	3247.10
378.89100	3895.10
379.64400	4638.90
380.39700	5315.80
381.14900	5499.20
381.90100	4923.30
382.65400	3798.70
383.40600	2719.80
384.15800	2142.30
384.91000	1882.80
385.66200	1742.10
386.41300	1699.40
387.16500	1665.60
387.91600	1653.40
388.66800	1642.40
389.41900	1635.60
390.17000	1644.40
390.92200	1644.90
391.67300	1651.90
392.42300	1662.50
393.17400	1672.30
393.92500	1674.50
394.67600	1698.20
395.42600	1732.60
396.17700	1765.70
396.92700	1787.60
397.67700	1857.90
398.42700	1913.40
399.17700	1980.60
399.92700	2101.90
400.67700	2251.10
401.42700	2460.90
402.17600	2802.30
402.92600	3269.60
403.67500	4031.20
404.42400	5084.80
405.17400	6531.60
405.92300	8089.00
406.67200	9349.30
407.42000	9703.20
408.16900	8598.10
408.91800	6465.00
409.66700	4495.50
410.41500	3235.70
411.16300	2618.20
411.91200	2270.50
412.66000	2062.40
413.40800	1954.80
414.15600	1892.00
414.90400	1832.30
415.65200	1789.40
416.39900	1764.30
417.14700	1738.30
417.89400	1719.20
418.64200	1725.60
419.38900	1714.50
420.13600	1702.00
420.88300	1685.30
421.63000	1685.40
422.37700	1685.70
423.12400	1679.60
423.87000	1679.50
424.61700	1668.10
425.36300	1653.60
426.11000	1656.10
426.85600	1661.50
427.60200	1656.50
428.34800	1654.90
429.09400	1676.50
429.84000	1667.70
430.58600	1666.70
431.33100	1666.60
432.07700	1677.30
432.82300	1680.20
433.56800	1685.90
434.31300	1672.20
435.05800	1687.70
435.80300	1705.30
436.54800	1707.40
437.29300	1701.00
438.03800	1722.50
438.78300	1731.60
439.52700	1730.60
440.27200	1738.70
441.01600	1739.00
441.76000	1767.50
442.50400	1775.00
443.24800	1786.00
443.99200	1785.30
444.73600	1801.90
445.48000	1826.70
446.22400	1838.00
446.96700	1883.70
447.71100	1899.20
448.45400	1897.50
449.19700	1899.70
449.94000	1920.40
450.68300	1896.90
451.42600	1901.40
452.16900	1874.60
452.91200	1854.30
453.65500	1836.60
454.39700	1823.30
455.14000	1809.20
455.88200	1811.50
456.62400	1799.40
457.36600	1788.70
458.10800	1791.30
458.85000	1801.70
459.59200	1780.80
460.33400	1782.20
461.07600	1797.10
461.81700	1794.90
462.55900	1774.90
463.30000	1770.60
464.04100	1748.40
464.78300	1738.20
465.52400	1700.70
466.26500	1671.90
467.00500	1632.30
467.74600	1604.60
468.48700	1567.50
469.22700	1538.80
469.96800	1507.30
470.70800	1489.30
471.44900	1486.30
472.18900	1467.30
472.92900	1455.70
473.66900	1451.30
474.40900	1446.90
475.14800	1437.10
475.88800	1428.90
476.62800	1436.90
477.36700	1428.90
478.10700	1430.10
478.84600	1434.80
479.58500	1433.80
480.32400	1428.60
481.06300	1428.20
481.80200	1434.00
482.54100	1429.20
483.28000	1437.70
484.01800	1431.80
484.75700	1426.60
485.49500	1437.50
486.23300	1433.20
486.97200	1428.20
487.71000	1431.60
488.44800	1435.40
489.18600	1429.10
489.92300	1430.20
490.66100	1435.60
491.39900	1426.20
492.13600	1437.10
492.87400	1439.60
493.61100	1427.40
494.34800	1439.00
495.08500	1429.70
495.82200	1438.80
496.55900	1429.60
497.29600	1436.10
498.03300	1437.20
498.76900	1441.80
499.50600	1436.40
500.24200	1442.10
500.97900	1442.10
501.71500	1434.60
502.45100	1441.20
503.18700	1434.50
503.92300	1442.30
504.65900	1440.50
505.39500	1429.70
506.13000	1440.50
506.86600	1436.60
507.60100	1437.90
508.33700	1439.60
509.07200	1442.50
509.80700	1444.40
510.54200	1443.60
511.27700	1439.80
512.01200	1443.10
512.74700	1446.30
513.48200	1444.70
514.21600	1443.30
514.95100	1447.90
515.68500	1447.10
516.41900	1453.40
517.15300	1445.30
517.88800	1451.90
518.62200	1456.40
519.35500	1453.90
520.08900	1453.00
520.82300	1464.30
521.55700	1463.40
522.29000	1453.80
523.02400	1459.70
523.75700	1458.20
524.49000	1459.70
525.22300	1469.80
525.95600	1463.10
526.68900	1466.10
527.42200	1467.30
528.15500	1466.10
528.88700	1459.10
529.62000	1465.60
530.35200	1460.30
531.08500	1468.50
531.81700	1465.00
532.54900	1465.00
533.28100	1467.00
534.01300	1452.60
534.74500	1466.00
535.47700	1460.80
536.20800	1472.00
536.94000	1463.60
537.67100	1459.20
538.40300	1458.90
539.13400	1471.40
539.86500	1469.90
540.59600	1474.10
541.32700	1467.60
542.05800	1466.30
542.78900	1477.30
543.52000	1473.90
544.25000	1481.00
544.98100	1482.70
545.71100	1483.40
546.44200	1490.10
547.17200	1485.90
547.90200	1489.90
548.63200	1494.20
549.36200	1489.70
550.09200	1498.00
550.82200	1501.30
551.55100	1513.60
552.28100	1503.20
553.01000	1500.70
553.74000	1508.10
554.46900	1517.50
555.19800	1514.50
555.92700	1535.00
556.65600	1528.40
557.38500	1543.80
558.11400	1538.20
558.84200	1538.70
559.57100	1547.20
560.30000	1535.50
561.02800	1558.80
561.75600	1549.40
562.48500	1561.40
563.21300	1574.20
563.94100	1577.20
564.66900	1579.50
565.39600	1590.50
566.12400	1596.80
566.85200	1601.90
567.57900	1612.20
568.30700	1587.90
569.03400	1594.30
569.76100	1582.50
570.48900	1589.30
571.21600	1564.70
571.94300	1558.30
572.66900	1557.80
573.39600	1557.00
574.12300	1554.50
574.85000	1546.70
575.57600	1558.80
576.30200	1560.00
577.02900	1549.70
577.75500	1557.40
578.48100	1574.10
579.20700	1565.00
579.93300	1565.80
580.65900	1571.70
581.38500	1573.40
582.11000	1580.40
582.83600	1578.80
583.56100	1593.10
584.28700	1585.90
585.01200	1594.50
585.73700	1588.70
586.46200	1598.20
587.18700	1595.20
587.91200	1602.30
588.63700	1603.20
589.36100	1601.80
590.08600	1620.20
590.81100	1613.70
591.53500	1620.60
592.25900	1622.80
592.98300	1645.20
593.70800	1638.20
594.43200	1640.70
595.15600	1646.50
595.87900	1637.50
596.60300	1625.20
597.32700	1605.80
598.05000	1602.40
598.77400	1568.40
599.49700	1543.00
600.22100	1536.20
600.94400	1515.80
601.66700	1511.80
602.39000	1496.70
603.11300	1497.90
603.83500	1496.80
604.55800	1486.70
605.28100	1495.10
606.00300	1495.30
606.72600	1482.70
607.44800	1490.00
608.17000	1491.70
608.89200	1486.30
609.61500	1483.10
610.33700	1493.00
611.05800	1479.50
611.78000	1490.70
612.50200	1491.20
613.22300	1489.00
613.94500	1493.30
614.66600	1494.20
615.38800	1494.60
616.10900	1487.80
616.83000	1479.90
617.55100	1484.80
618.27200	1484.30
618.99300	1482.60
619.71300	1482.10
620.43400	1482.10
621.15500	1482.00
621.87500	1481.20
622.59500	1475.10
623.31600	1497.40
624.03600	1482.10
624.75600	1485.70
625.47600	1480.20
626.19600	1483.70
626.91600	1486.50
627.63500	1483.60
628.35500	1477.60
629.07500	1490.30
629.79400	1481.50
630.51300	1484.10
631.23300	1477.60
631.95200	1481.30
632.67100	1470.80
633.39000	1477.80
634.10900	1482.60
634.82700	1483.00
635.54600	1470.10
636.26500	1467.60
636.98300	1466.90
637.70200	1468.60
638.42000	1461.70
639.13800	1465.00
639.85600	1452.00
640.57400	1461.60
641.29200	1449.90
642.01000	1432.30
642.72800	1430.80
643.44600	1422.60
644.16300	1418.30
644.88100	1414.20
645.59800	1400.90
646.31500	1408.20
647.03300	1412.60
647.75000	1403.30
648.46700	1402.90
649.18400	1396.00
649.90000	1396.40
650.61700	1398.70
651.33400	1396.10
652.05000	1401.30
652.76700	1389.20
653.48300	1398.80
654.20000	1393.60
654.91600	1395.50
655.63200	1399.40
656.34800	1392.00
657.06400	1389.70
657.78000	1390.40
658.49500	1385.50
659.21100	1391.60
659.92600	1394.20
660.64200	1393.00
661.35700	1392.50
662.07300	1393.90
662.78800	1392.10
663.50300	1390.60
664.21800	1406.10
664.93300	1401.20
665.64800	1403.80
666.36200	1400.20
667.07700	1398.50
667.79100	1410.70
668.50600	1416.50
669.22000	1406.00
669.93400	1397.90
670.64900	1404.60
671.36300	1406.10
672.07700	1412.40
672.79100	1401.10
673.50400	1403.00
674.21800	1401.50
674.93200	1406.20
675.64500	1393.80
676.35900	1403.60
677.07200	1400.00
677.78500	1396.30
678.49800	1393.40
679.21100	1399.80
679.92400	1391.60
680.63700	1393.50
681.35000	1388.90
682.06300	1392.60
682.77500	1396.80
683.48800	1393.50
684.20000	1396.60
684.91300	1391.30
685.62500	1389.50
686.33700	1394.90
687.04900	1393.50
687.76100	1403.70
688.47300	1398.20
689.18500	1399.10
689.89600	1398.20
690.60800	1397.70
691.32000	1394.10
692.03100	1405.90
692.74200	1406.40
693.45400	1405.30
694.16500	1420.40
694.87600	1414.40
695.58700	1416.50
696.29800	1420.90
697.00800	1418.50
697.71900	1426.70
698.43000	1432.80
699.14000	1435.90
699.85100	1430.40
700.56100	1427.30
701.27100	1421.70
701.98100	1430.60
702.69100	1427.80
703.40100	1429.20
704.11100	1431.70
704.82100	1430.50
705.53100	1425.60
706.24000	1426.60
706.95000	1423.40
707.65900	1422.80
708.36900	1426.50
709.07800	1418.80
709.78700	1418.40
710.49600	1418.70
711.20500	1420.80
711.91400	1418.70
712.62300	1413.10
713.33100	1419.50
714.04000	1423.10
714.74900	1422.30
715.45700	1423.70
716.16500	1427.90
716.87400	1429.30
717.58200	1425.00
718.29000	1442.30
718.99800	1434.60
719.70600	1439.50
720.41400	1441.90
721.12100	1446.00
721.82900	1450.80
722.53600	1444.00
723.24400	1431.60
723.95100	1442.50
724.65800	1445.70
725.36600	1445.20
726.07300	1445.70
726.78000	1449.90
727.48700	1448.30
728.19300	1450.00
728.90000	1445.50
729.60700	1450.10
730.31300	1455.60
731.02000	1458.40
731.72600	1458.40
732.43200	1461.90
733.13900	1458.30
733.84500	1474.70
734.55100	1460.00
735.25700	1458.40
735.96200	1477.60
736.66800	1471.10
737.37400	1478.90
738.07900	1481.90
738.78500	1486.30
739.49000	1487.90
740.19600	1486.70
740.90100	1493.70
741.60600	1504.00
742.31100	1500.10
743.01600	1511.00
743.72100	1503.90
744.42500	1505.80
745.13000	1522.90
745.83500	1512.10
746.53900	1511.50
747.24400	1518.70
747.94800	1510.50
748.65200	1519.10
749.35600	1509.90
750.06000	1523.90
750.76400	1517.30
751.46800	1521.40
752.17200	1507.20
752.87600	1508.00
753.57900	1507.70
754.28300	1493.40
754.98600	1489.60
755.68900	1502.40
756.39300	1484.30
757.09600	1494.10
757.79900	1484.70
758.50200	1467.30
759.20500	1476.20
759.90800	1462.00
760.61000	1476.40
761.31300	1456.10
762.01500	1450.20
762.71800	1459.00
763.42000	1446.40
764.12300	1439.40
764.82500	1436.70
765.52700	1429.50
766.22900	1427.90
766.93100	1422.50
767.63300	1429.30
768.33400	1422.50
769.03600	1439.30
769.73700	1417.20
770.43900	1444.20
771.14000	1438.30
771.84200	1442.90
772.54300	1447.40
773.24400	1463.90
773.94500	1456.90
774.64600	1459.40
775.34700	1454.40
776.04800	1473.40
776.74800	1460.40
777.44900	1454.90
778.14900	1460.20
778.85000	1463.90
779.55000	1451.70
780.25000	1454.10
780.95000	1459.90
781.65100	1441.60
782.35000	1439.50
783.05000	1441.90
783.75000	1445.10
784.45000	1438.70
785.15000	1432.10
785.84900	1428.00
786.54900	1428.20
787.24800	1420.50
787.94700	1421.40
788.64600	1419.20
789.34500	1404.30
790.04400	1411.70
790.74300	1406.10
791.44200	1399.30
792.14100	1405.80
792.84000	1399.40
793.53800	1404.80
794.23700	1402.20
794.93500	1400.60
795.63300	1395.30
796.33200	1398.60
797.03000	1393.20
797.72800	1397.70
798.42600	1400.00
799.12400	1394.60
799.82100	1401.30
800.51900	1409.80
801.21700	1402.80
801.91400	1404.10
802.61200	1404.00
803.30900	1408.20
804.00600	1411.40
804.70300	1407.90
805.40100	1407.80
806.09800	1408.60
806.79400	1417.40
807.49100	1413.80
808.18800	1415.00
808.88500	1412.80
809.58100	1430.10
810.27800	1426.00
810.97400	1423.90
811.67000	1423.90
812.36700	1431.30
813.06300	1450.30
813.75900	1431.70
814.45500	1431.80
815.15100	1426.30
815.84600	1428.40
816.54200	1424.50
817.23800	1438.40
817.93300	1426.30
818.62900	1423.80
819.32400	1413.70
820.01900	1414.40
820.71400	1427.10
821.41000	1412.20
822.10500	1409.80
822.79900	1416.20
823.49400	1410.40
824.18900	1407.60
824.88400	1402.70
825.57800	1413.10
826.27300	1405.30
826.96700	1392.10
827.66100	1399.00
828.35600	1392.70
829.05000	1392.80
829.74400	1389.50
830.43800	1386.70
831.13200	1377.80
831.82500	1382.20
832.51900	1384.50
833.21300	1383.20
833.90600	1375.30
834.60000	1377.30
835.29300	1373.10
835.98600	1374.70
836.68000	1373.10
837.37300	1370.30
838.06600	1378.40
838.75900	1373.90
839.45200	1372.50
840.14400	1369.90
840.83700	1376.90
841.53000	1375.50
842.22200	1371.40
842.91400	1377.10
843.60700	1370.30
844.29900	1371.80
844.99100	1377.30
845.68300	1380.30
846.37500	1369.90
847.06700	1381.50
847.75900	1373.80
848.45100	1373.60
849.14200	1376.20
849.83400	1377.40
850.52500	1370.70
851.21700	1369.00
851.90800	1374.00
852.59900	1373.60
853.29000	1378.60
853.98100	1372.50
854.67200	1372.50
855.36300	1379.80
856.05400	1375.60
856.74500	1368.90
857.43500	1375.60
858.12600	1371.10
858.81600	1372.10
859.50700	1370.20
860.19700	1368.90
860.88700	1371.40
861.57700	1369.30
862.26700	1367.70
862.95700	1368.50
863.64700	1364.50
864.33700	1371.20
865.02700	1370.90
865.71600	1368.20
866.40600	1368.90
867.09500	1369.70
867.78400	1364.10
868.47400	1365.70
869.16300	1368.00
869.85200	1365.60
870.54100	1374.50
871.23000	1365.90
871.91900	1363.40
872.60700	1369.30
873.29600	1364.00
873.98500	1359.80
874.67300	1361.70
875.36200	1359.50
876.05000	1360.50
876.73800	1360.80
877.42600	1359.20
878.11400	1356.80
878.80200	1361.50
879.49000	1360.90
880.17800	1367.20
880.86600	1360.20
881.55300	1360.10
882.24100	1358.40
882.92800	1360.40
883.61600	1369.70
884.30300	1362.10
884.99000	1360.00
885.67700	1361.50
886.36500	1360.50
887.05200	1363.20
887.73800	1363.30
888.42500	1357.60
889.11200	1368.60
889.79900	1362.30
890.48500	1361.70
891.17200	1364.00
891.85800	1364.10
892.54400	1366.20
893.23000	1363.10
893.91700	1359.50
894.60300	1369.10
895.28900	1360.80
895.97400	1364.20
896.66000	1369.30
897.34600	1364.00
898.03200	1363.60
898.71700	1361.10
899.40300	1360.50
900.08800	1358.30
900.77300	1368.50
901.45800	1357.20
902.14300	1359.00
902.82900	1364.20
903.51300	1361.20
904.19800	1358.00
904.88300	1358.40
905.56800	1363.20
906.25200	1362.80
906.93700	1378.90
907.62100	1429.60
908.30600	1371.40
908.99000	1360.70
909.67400	1361.50
910.35800	1355.90
911.04200	1365.40
911.72600	1360.40
912.41000	1370.80
913.09400	1362.50
913.77800	1362.20
914.46100	1361.00
915.14500	1360.80
915.82800	1361.40
916.51200	1354.40
917.19500	1360.30
917.87800	1356.70
918.56100	1361.40
919.24400	1356.90
919.92700	1365.80
920.61000	1359.30
921.29300	1362.90
921.97500	1363.30
922.65800	1361.40
923.34100	1356.00
924.02300	1358.20
924.70500	1361.50
925.38800	1357.30
926.07000	1363.40
926.75200	1364.00
927.43400	1357.20
928.11600	1360.40
928.79800	1364.80
929.47900	1363.20
930.16100	1361.80
930.84300	1357.70
931.52400	1363.80
932.20600	1362.80
932.88700	1365.90
933.56800	1368.90
934.25000	1359.80
934.93100	1357.50
935.61200	1359.50
936.29300	1362.40
936.97400	1361.40
937.65400	1358.40
938.33500	1362.90
939.01600	1357.80
939.69600	1360.70
940.37700	1361.70
941.05700	1361.40
941.73700	1354.90
942.41700	1361.60
943.09800	1363.80
943.77800	1363.20
944.45800	1359.70
945.13700	1355.50
945.81700	1353.90
946.49700	1352.70
947.17700	1364.10
947.85600	1367.10
948.53600	1355.90
949.21500	1357.40
949.89400	1357.40
950.57300	1361.80
951.25300	1358.20
951.93200	1361.90
952.61100	1363.60
953.28900	1358.00
953.96800	1356.90
954.64700	1360.20
955.32600	1355.70
956.00400	1358.80
956.68300	1359.20
957.36100	1354.80
958.03900	1360.00
958.71800	1363.40
959.39600	1359.50
960.07400	1363.60
960.75200	1359.00
961.43000	1363.00
962.10700	1358.00
962.78500	1356.80
963.46300	1362.80
964.14000	1355.40
964.81800	1358.40
965.49500	1356.60
966.17300	1357.10
966.85000	1361.80
967.52700	1365.60
968.20400	1357.00
968.88100	1356.30
969.55800	1356.00
970.23500	1358.20
970.91200	1352.30
971.58800	1351.70
972.26500	1357.00
972.94100	1354.60
973.61800	1361.00
974.29400	1355.90
974.97000	1357.00
975.64700	1357.90
976.32300	1356.80
976.99900	1356.00
977.67500	1359.20
978.35000	1360.10
979.02600	1355.90
979.70200	1358.60
980.37800	1352.80
981.05300	1351.50
981.72800	1355.60
982.40400	1351.70
983.07900	1354.60
983.75400	1352.50
984.42900	1356.30
985.10400	1357.40
985.77900	1353.80
986.45400	1357.50
987.12900	1356.30
987.80400	1353.60
988.47800	1354.60
989.15300	1355.90
989.82700	1357.30
990.50200	1357.60
991.17600	1354.80
991.85000	1351.00
992.52500	1345.90
993.19900	1355.90
993.87300	1348.40
994.54600	1350.80
995.22000	1356.10
995.89400	1348.90
996.56800	1368.80
997.24100	1354.40
997.91500	1352.00
998.58800	1360.20
999.26200	1358.10
999.93500	1361.60
1000.61000	1364.40
1001.28000	1353.90
1001.95000	1354.50
1002.63000	1352.80
1003.30000	1349.50
1003.97000	1353.60
1004.65000	1351.10
1005.32000	1350.00
1005.99000	1356.00
1006.66000	1353.60
1007.34000	1355.70
1008.01000	1349.60
1008.68000	1349.70
1009.35000	1348.20
1010.02000	1345.50
1010.70000	1351.60
1011.37000	1353.90
1012.04000	1349.20
1012.71000	1348.00
1013.38000	1349.60
1014.05000	1342.70
1014.73000	1349.50
1015.40000	1350.30
1016.07000	1351.60
1016.74000	1350.50
1017.41000	1348.60
1018.08000	1348.00
1018.75000	1346.20
1019.42000	1351.00
1020.09000	1354.00
1020.77000	1348.20
1021.44000	1345.20
1022.11000	1347.70
1022.78000	1348.60
1023.45000	1344.40
1024.12000	1345.80
1024.79000	1349.60
1025.46000	1346.40
1026.13000	1343.80
1026.80000	1352.40
1027.47000	1344.20
1028.14000	1344.60
1028.81000	1344.40
1029.48000	1345.90
1030.15000	1348.40
1030.82000	1346.20
1031.49000	1344.30
1032.16000	1343.20
1032.83000	1348.10
1033.49000	1342.90
1034.16000	1341.70
1034.83000	1345.30
1035.50000	1345.50
1036.17000	1344.50
1036.84000	1346.40
1037.51000	1345.30
1038.18000	1342.10
1038.85000	1347.20
1039.51000	1344.60
1040.18000	1345.10
1040.85000	1349.00
1041.52000	1346.30
1042.19000	1348.10
1042.86000	1346.30
1043.52000	1343.50
1044.19000	1340.00
1044.86000	1339.30
1045.53000	1348.10
1046.20000	1343.30
1046.86000	1346.50
1047.53000	1345.20
1048.20000	1342.40
1048.87000	1338.10
1049.53000	1340.40
1050.20000	1343.90
1050.87000	1339.70
1051.53000	1343.90
1052.20000	1340.30
1052.87000	1337.10
1053.54000	1341.20
1054.20000	1342.90
1054.87000	1343.20
1055.54000	1340.40
1056.20000	1345.50
1056.87000	1342.90
1057.53000	1337.70
1058.20000	1341.80
1058.87000	1342.20
1059.53000	1337.90
1060.20000	1336.60
1060.87000	1345.80
1061.53000	1337.90
1062.20000	1340.20
1062.86000	1337.30
1063.53000	1336.70
1064.19000	1337.90
1064.86000	1335.90
1065.52000	1340.40
1066.19000	1337.70
1066.86000	1344.60
1067.52000	1336.30
1068.19000	1339.30
1068.85000	1340.30
1069.52000	1338.30
1070.18000	1339.50
1070.85000	1337.70
1071.51000	1336.00
1072.17000	1339.40
1072.84000	1347.70
1073.50000	1342.80
1074.17000	1343.00
1074.83000	1337.20
1075.50000	1335.10
1076.16000	1346.90
1076.83000	1337.20
1077.49000	1341.30
1078.15000	1347.60
1078.82000	1342.60
1079.48000	1341.10
1080.14000	1335.60
1080.81000	1334.50
1081.47000	1342.10
1082.14000	1336.40
1082.80000	1339.40
1083.46000	1340.00
1084.13000	1334.70
1084.79000	1338.30
1085.45000	1338.30
1086.11000	1337.70
1086.78000	1343.70
1087.44000	1343.20
1088.10000	1341.40
1088.77000	1339.70
1089.43000	1342.40
1090.09000	1338.40
1090.75000	1336.70
1091.42000	1334.20
1092.08000	1340.00
1092.74000	1338.30
1093.40000	1348.40
1094.06000	1340.00
1094.73000	1342.00
1095.39000	1337.40
1096.05000	1338.10
1096.71000	1336.00
1097.37000	1340.20
1098.03000	1338.30
1098.70000	1335.40
1099.36000	1339.70
1100.02000	1338.80
1100.68000	1333.10
1101.34000	1336.90
1102.00000	1336.50
1102.66000	1337.30
1103.32000	1338.60
1103.99000	1341.40
1104.65000	1334.60
1105.31000	1333.90
1105.97000	1338.90
1106.63000	1338.00
1107.29000	1334.50
1107.95000	1341.40
1108.61000	1337.90
1109.27000	1338.20
1109.93000	1335.50
1110.59000	1339.60
1111.25000	1337.40
1111.91000	1338.40
1112.57000	1341.30
1113.23000	1338.40
1113.89000	1336.00
1114.55000	1339.30
1115.21000	1333.30
1115.87000	1340.70
1116.53000	1335.60
1117.19000	1334.40
1117.85000	1335.60
1118.51000	1337.80
1119.16000	1333.90
1119.82000	1359.50
1120.48000	1337.50
1121.14000	1336.70
1121.80000	1338.30
1122.46000	1338.80
1123.12000	1337.10
1123.78000	1345.50
1124.44000	1340.90
1125.09000	1334.30
1125.75000	1337.30
1126.41000	1383.40
1127.07000	1418.50
1127.73000	1340.10
1128.38000	1338.80
1129.04000	1338.00
1129.70000	1335.70
1130.36000	1330.70
1131.02000	1340.80
1131.67000	1341.20
1132.33000	1335.40
1132.99000	1343.50
1133.65000	1335.70
1134.30000	1331.10
1134.96000	1332.60
1135.62000	1339.40
1136.27000	1338.70
1136.93000	1332.00
1137.59000	1336.50
1138.25000	1337.80
1138.90000	1338.00
1139.56000	1331.30
1140.22000	1335.60
1140.87000	1340.60
1141.53000	1338.10
1142.19000	1336.80
1142.84000	1333.50
1143.50000	1336.70
1144.15000	1332.50
1144.81000	1335.30
1145.47000	1335.60
1146.12000	1338.20
1146.78000	1337.50
1147.43000	1335.20
1148.09000	1337.90
1148.75000	1332.50
1149.40000	1336.40
1150.06000	1351.80
1150.71000	1332.60
1151.37000	1337.70
1152.02000	1336.30
1152.68000	1346.60
1153.33000	1338.50
1153.99000	1340.40
1154.64000	1339.10
1155.30000	1337.30
1155.95000	1331.80
1156.61000	1332.50
1157.26000	1334.00
1157.92000	1333.70
1158.57000	1335.50
1159.23000	1339.60
1159.88000	1337.60
1160.53000	1330.90
1161.19000	1336.60
1161.84000	1331.00
1162.50000	1348.00
1163.15000	1335.00
1163.80000	1334.90
1164.46000	1335.10
1165.11000	1340.40
1165.77000	1333.60
1166.42000	1336.70
1167.07000	1333.90
1167.73000	1331.80
1168.38000	1330.40
1169.03000	1339.30
1169.69000	1334.90
1170.34000	1329.70
1170.99000	1337.90
1171.65000	1336.20
1172.30000	1339.00
1172.95000	1339.20
1173.60000	1334.10
1174.26000	1332.10
1174.91000	1342.60
1175.56000	1333.30
1176.21000	1330.70
1176.87000	1333.80
1177.52000	1335.10
1178.17000	1334.70
1178.82000	1332.50
1179.48000	1336.80
1180.13000	1336.50
1180.78000	1336.10
1181.43000	1336.00
1182.08000	1332.60
1182.73000	1337.80
1183.39000	1333.00
1184.04000	1337.20
1184.69000	1329.50
1185.34000	1336.00
1185.99000	1336.50
1186.64000	1329.80
1187.29000	1330.30
1187.95000	1339.40
1188.60000	1331.80
1189.25000	1331.00
1189.90000	1337.20
1190.55000	1336.80
1191.20000	1335.80
1191.85000	1334.10
1192.50000	1329.50
1193.15000	1333.50
1193.80000	1326.40
1194.45000	1345.40
1195.10000	1332.40