44.56800	1313.20
45.36760	1308.30
46.16700	1313.30
46.96630	1310.90
47.76560	1312.60
48.56470	1313.60
49.36370	1310.10
50.16250	1312.90
50.96130	1314.10
51.75990	1322.70
52.55850	1314.60
53.35690	1319.30
54.15520	1316.60
54.95340	1320.90
55.75140	1325.80
56.54940	1338.90
57.34720	1384.10
58.14490	1423.70
58.94250	1358.70
59.74000	1355.60
60.53740	1382.00
61.33470	1386.40
62.13180	1401.80
62.92890	1427.90
63.72580	1469.30
64.52260	1500.20
65.31930	1536.50
66.11580	1591.60
66.91230	1627.00
67.70860	1675.50
68.50490	1725.60
69.30100	1759.70
70.09700	1814.40
70.89290	1825.10
71.68860	1867.60
72.48430	1913.50
73.27980	1966.40
74.07530	1996.50
74.87060	2036.30
75.66580	2089.20
76.46090	2158.20
77.25580	2168.90
78.05070	2171.90
78.84540	2179.30
79.64000	2197.90
80.43460	2213.20
81.22900	2203.90
82.02320	2220.70
82.81740	2214.10
83.61150	2235.10
84.40540	2235.30
85.19920	2193.50
85.99300	2162.70
86.78660	2167.50
87.58000	2152.20
88.37340	2141.20
89.16670	2143.50
89.95980	2131.80
90.75290	2145.50
91.54580	2176.20
92.33860	2151.00
93.13130	2142.70
93.92380	2128.00
94.71630	2150.80
95.50870	2127.70
96.30090	2136.10
97.09300	2145.80
97.88500	2118.30
98.67690	2123.90
99.46870	2108.80
100.26000	2110.50
101.05200	2115.30
101.84300	2093.80
102.63500	2094.40
103.42600	2067.00
104.21700	2083.20
105.00800	2057.00
105.79900	2082.60
106.59000	2075.70
107.38000	2074.40
108.17100	2073.10
108.96100	2073.00
109.75200	2062.60
110.54200	2053.10
111.33200	2051.50
112.12200	2037.10
112.91200	2037.60
113.70100	2037.10
114.49100	2057.70
115.28100	2063.60
116.07000	2052.00
116.85900	2053.80
117.64800	2068.00
118.43800	2027.60
119.22700	2050.20
120.01500	2047.70
120.80400	2039.30
121.59300	2041.90
122.38100	2042.30
123.17000	2041.90
123.95800	2018.70
124.74600	2034.20
125.53400	2021.90
126.32200	2024.70
127.11000	2004.70
127.89800	2015.60
128.68500	2034.70
129.47300	2021.20
130.26000	2025.20
131.04700	2023.30
131.83500	2027.30
132.62200	2022.60
133.40900	2036.80
134.19500	2025.80
134.98200	2012.80
135.76900	2020.60
136.55500	2010.10
137.34200	2032.30
138.12800	2031.80
138.91400	2011.90
139.70000	2034.00
140.48600	2030.20
141.27200	2014.70
142.05700	2013.20
142.84300	2013.80
143.62900	2017.50
144.41400	2021.10
145.19900	2004.00
145.98400	2022.30
146.76900	2007.90
147.55400	2019.80
148.33900	2013.70
149.12400	2008.00
149.90800	2016.40
150.69300	1991.70
151.47700	2011.80
152.26100	2016.80
153.04600	2026.00
153.83000	2034.50
154.61400	2047.90
155.39700	2019.80
156.18100	2033.70
156.96500	2045.60
157.74800	2053.90
158.53200	2040.10
159.31500	2051.70
160.09800	2058.70
160.88100	2075.10
161.66400	2082.50
162.44700	2105.30
163.22900	2121.80
164.01200	2147.70
164.79400	2168.60
165.57700	2231.10
166.35900	2281.90
167.14100	2379.80
167.92300	2517.00
168.70500	2635.00
169.48700	2722.30
170.26900	2846.80
171.05000	2930.70
171.83200	2931.40
172.61300	2986.60
173.39400	2955.80
174.17600	2979.70
174.95700	2948.10
175.73800	2865.70
176.51800	2775.00
177.29900	2726.80
178.08000	2615.00
178.86000	2536.70
179.64100	2476.30
180.42100	2401.70
181.20100	2364.70
181.98100	2285.50
182.76100	2270.80
183.54100	2235.40
184.32100	2225.20
185.10000	2212.80
185.88000	2195.50
186.65900	2194.20
187.43800	2215.90
188.21800	2197.30
188.99700	2221.50
189.77600	2242.20
190.55400	2311.70
191.33300	2415.20
192.11200	2597.80
192.89000	2864.80
193.66900	3211.00
194.44700	3554.30
195.22500	3429.00
196.00300	3110.10
196.78100	2739.80
197.55900	2522.40
198.33700	2399.50
199.11400	2340.90
199.89200	2297.90
200.66900	2246.40
201.44700	2246.80
202.22400	2282.80
203.00100	2279.30
203.77800	2285.20
204.55500	2301.60
205.33200	2271.60
206.10800	2263.40
206.88500	2273.50
207.66100	2280.00
208.43800	2260.50
209.21400	2279.20
209.99000	2296.60
210.76600	2310.50
211.54200	2350.60
212.31800	2368.40
213.09300	2377.90
213.86900	2394.00
214.64400	2349.00
215.42000	2317.50
216.19500	2271.60
216.97000	2229.40
217.74500	2179.40
218.52000	2197.30
219.29500	2168.80
220.06900	2137.10
220.84400	2120.00
221.61800	2104.70
222.39300	2122.30
223.16700	2110.20
223.94100	2136.10
224.71500	2164.10
225.48900	2208.00
226.26300	2281.60
227.03700	2362.60
227.81000	2467.60
228.58400	2665.60
229.35700	2946.80
230.13100	3303.00
230.90400	3669.10
231.67700	3857.70
232.45000	3816.20
233.22300	3662.90
233.99500	3419.40
234.76800	3138.40
235.54100	2942.80
236.31300	2769.80
237.08500	2608.20
237.85700	2521.00
238.63000	2413.70
239.40200	2343.30
240.17300	2317.50
240.94500	2255.90
241.71700	2239.60
242.48800	2169.20
243.26000	2164.80
244.03100	2137.70
244.80200	2130.80
245.57400	2102.60
246.34500	2104.10
247.11600	2112.00
247.88600	2088.80
248.65700	2092.10
249.42800	2097.20
250.19800	2088.50
250.96800	2100.60
251.73900	2126.50
252.50900	2133.90
253.27900	2123.20
254.04900	2126.70
254.81900	2127.10
255.58800	2147.60
256.35800	2159.50
257.12800	2162.40
257.89700	2173.90
258.66600	2190.10
259.43600	2217.50
260.20500	2224.80
260.97400	2234.70
261.74300	2263.40
262.51100	2282.10
263.28000	2312.70
264.04800	2336.20
264.81700	2332.70
265.58500	2342.80
266.35400	2348.20
267.12200	2336.80
267.89000	2341.00
268.65800	2354.80
269.42500	2336.90
270.19300	2294.10
270.96100	2315.70
271.72800	2322.50
272.49600	2305.90
273.26300	2314.50
274.03000	2323.00
274.79700	2308.60
275.56400	2319.90
276.33100	2308.50
277.09800	2327.70
277.86400	2358.40
278.63100	2333.30
279.39700	2326.40
280.16400	2376.80
280.93000	2341.20
281.69600	2367.80
282.46200	2387.00
283.22800	2403.60
283.99400	2408.30
284.75900	2423.00
285.52500	2440.00
286.29000	2464.10
287.05600	2499.50
287.82100	2527.60
288.58600	2553.00
289.35100	2602.90
290.11600	2658.20
290.88100	2677.50
291.64600	2747.00
292.41000	2861.20
293.17500	3018.90
293.93900	3119.10
294.70300	3300.30
295.46800	3540.50
296.23200	3865.30
296.99600	4133.30
297.76000	4135.70
298.52300	3959.30
299.28700	3577.70
300.05100	3304.20
300.81400	2971.40
301.57700	2798.90
302.34100	2645.60
303.10400	2585.10
303.86700	2612.50
304.63000	2650.20
305.39300	2731.40
306.15500	2863.10
306.91800	2954.60
307.68000	3099.80
308.44300	3278.10
309.20500	3400.70
309.96700	3568.10
310.72900	3747.70
311.49100	3851.90
312.25300	3965.20
313.01500	4068.20
313.77700	4167.30
314.53800	4213.60
315.30000	4302.80
316.06100	4408.50
316.82200	4564.20
317.58400	4822.50
318.34500	5012.10
319.10600	5420.10
319.86600	5725.70
320.62700	6080.30
321.38800	6447.40
322.14800	6692.20
322.90900	6885.50
323.66900	6955.90
324.42900	6919.80
325.18900	6788.20
325.94900	6562.70
326.70900	6222.00
327.46900	5918.70
328.22900	5621.00
328.98800	5353.30
329.74800	5195.50
330.50700	5074.80
331.26600	5033.50
332.02600	5063.40
332.78500	5182.70
333.54400	5377.20
334.30200	5563.80
335.06100	5801.20
335.82000	6124.00
336.57800	6367.80
337.33700	6748.20
338.09500	7117.40
338.85300	7562.10
339.61100	8028.80
340.36900	8527.80
341.12700	9133.60
341.88500	9781.00
342.64300	10508.10
343.40100	11392.90
344.15800	12542.60
344.91500	13815.20
345.67300	15562.10
346.43000	17607.50
347.18700	20340.50
347.94400	23941.70
348.70100	28213.00
349.45800	31929.10
350.21400	33375.20
350.97100	32522.60
351.72700	30300.10
352.48400	27802.10
353.24000	24908.20
353.99600	22533.10
354.75200	21550.00
355.50800	22268.30
356.26400	22632.80
357.02000	18755.60
357.77500	11966.80
358.53100	7108.00
359.28600	4825.80
360.04200	3847.90
360.79700	3369.80
361.55200	3046.40
362.30700	2847.10
363.06200	2680.90
363.81700	2605.20
364.57100	2532.80
365.32600	2473.90
366.08000	2411.20
366.83500	2373.70
367.58900	2345.80
368.34300	2335.40
369.09700	2349.60
369.85100	2286.80
370.60500	2279.30
371.35900	2265.30
372.11300	2242.70
372.86600	2243.90
373.62000	2239.80
374.37300	2214.10
375.12700	2235.00
375.88000	2222.50
376.63300	2198.30
377.38600	2209.00
378.13900	2204.30
378.89100	2177.30
379.64400	2182.10
380.39700	2152.90
381.14900	2144.30
381.90100	2160.50
382.65400	2134.50
383.40600	2138.30
384.15800	2131.70
384.91000	2102.90
385.66200	2103.00
386.41300	2058.30
387.16500	2050.10
387.91600	2053.40
388.66800	2035.30
389.41900	2023.90
390.17000	2016.50
390.92200	2018.60
391.67300	1991.90
392.42300	2010.30
393.17400	1978.60
393.92500	1975.50
394.67600	1984.70
395.42600	1968.50
396.17700	1975.30
396.92700	1974.70
397.67700	1978.60
398.42700	1972.50
399.17700	1970.00
399.92700	1958.30
400.67700	1979.50
401.42700	1977.80
402.17600	1978.70
402.92600	1972.60
403.67500	1994.50
404.42400	2031.00
405.17400	2048.20
405.92300	2058.10
406.67200	2090.00
407.42000	2111.00
408.16900	2135.80
408.91800	2157.60
409.66700	2197.10
410.41500	2258.00
411.16300	2290.70
411.91200	2354.60
412.66000	2450.90
413.40800	2565.70
414.15600	2742.70
414.90400	2953.50
415.65200	3259.20
416.39900	3690.30
417.14700	4448.60
417.89400	5969.80
418.64200	9133.10
419.38900	14897.20
420.13600	21457.90
420.88300	23299.90
421.63000	18206.80
422.37700	11224.30
423.12400	6720.20
423.87000	4496.60
424.61700	3514.00
425.36300	2968.40
426.11000	2645.30
426.85600	2460.70
427.60200	2300.90
428.34800	2207.30
429.09400	2119.60
429.84000	2076.40
430.58600	2019.00
431.33100	1997.60
432.07700	1977.40
432.82300	1941.80
433.56800	1927.30
434.31300	1904.90
435.05800	1915.10
435.80300	1894.30
436.54800	1879.50
437.29300	1865.00
438.03800	1883.80
438.78300	1886.40
439.52700	1872.30
440.27200	1883.20
441.01600	1874.70
441.76000	1859.80
442.50400	1874.90
443.24800	1873.00
443.99200	1873.70
444.73600	1856.50
445.48000	1842.70
446.22400	1862.70
446.96700	1862.80
447.71100	1872.30
448.45400	1839.20
449.19700	1865.50
449.94000	1862.80
450.68300	1851.20
451.42600	1846.80
452.16900	1854.10
452.91200	1836.60
453.65500	1851.10
454.39700	1837.10
455.14000	1837.90
455.88200	1839.90
456.62400	1827.60
457.36600	1852.40
458.10800	1841.00
458.85000	1839.60
459.59200	1848.30
460.33400	1827.60
461.07600	1826.40
461.81700	1845.50
462.55900	1835.50
463.30000	1847.60
464.04100	1852.90
464.78300	1854.20
465.52400	1844.90
466.26500	1855.20
467.00500	1873.50
467.74600	1852.50
468.48700	1882.50
469.22700	1894.00
469.96800	1900.60
470.70800	1911.80
471.44900	1914.20
472.18900	1942.70
472.92900	1965.10
473.66900	1976.70
474.40900	2059.20
475.14800	2063.60
475.88800	2102.10
476.62800	2126.50
477.36700	2144.10
478.10700	2147.50
478.84600	2160.40
479.58500	2153.90
480.32400	2149.60
481.06300	2128.60
481.80200	2124.90
482.54100	2125.50
483.28000	2117.60
484.01800	2107.50
484.75700	2104.50
485.49500	2087.50
486.23300	2085.90
486.97200	2068.10
487.71000	2062.30
488.44800	2051.30
489.18600	2057.40
489.92300	2057.50
490.66100	2053.10
491.39900	2035.80
492.13600	2036.70
492.87400	2025.20
493.61100	2032.70
494.34800	2041.10
495.08500	2028.50
495.82200	2034.80
496.55900	2062.20
497.29600	2061.30
498.03300	2068.90
498.76900	2079.50
499.50600	2071.20
500.24200	2083.90
500.97900	2059.10
501.71500	2022.30
502.45100	2016.50
503.18700	2006.60
503.92300	1991.00
504.65900	1970.20
505.39500	2006.50
506.13000	1991.10
506.86600	2023.50
507.60100	2045.10
508.33700	2071.20
509.07200	2083.40
509.80700	2147.70
510.54200	2188.70
511.27700	2265.30
512.01200	2334.60
512.74700	2355.60
513.48200	2409.40
514.21600	2433.10
514.95100	2466.50
515.68500	2461.80
516.41900	2511.80
517.15300	2578.40
517.88800	2754.00
518.62200	2944.30
519.35500	3167.70
520.08900	3438.70
520.82300	3557.30
521.55700	3613.50
522.29000	3521.40
523.02400	3350.00
523.75700	3130.00
524.49000	2917.70
525.22300	2731.20
525.95600	2582.90
526.68900	2499.90
527.42200	2411.20
528.15500	2364.60
528.88700	2315.30
529.62000	2273.50
530.35200	2256.10
531.08500	2222.00
531.81700	2201.20
532.54900	2199.80
533.28100	2169.30
534.01300	2151.30
534.74500	2147.70
535.47700	2135.30
536.20800	2136.70
536.94000	2148.50
537.67100	2146.20
538.40300	2142.90
539.13400	2164.30
539.86500	2195.50
540.59600	2195.40
541.32700	2222.50
542.05800	2249.60
542.78900	2265.50
543.52000	2288.00
544.25000	2275.90
544.98100	2253.70
545.71100	2221.10
546.44200	2210.00
547.17200	2170.70
547.90200	2117.90
548.63200	2088.00
549.36200	2029.30
550.09200	1968.30
550.82200	1901.60
551.55100	1842.80
552.28100	1789.40
553.01000	1777.20
553.74000	1748.40
554.46900	1713.70
555.19800	1707.10
555.92700	1707.60
556.65600	1688.60
557.38500	1676.10
558.11400	1664.00
558.84200	1669.70
559.57100	1686.20
560.30000	1672.40
561.02800	1684.30
561.75600	1681.10
562.48500	1672.90
563.21300	1688.20
563.94100	1701.30
564.66900	1703.70
565.39600	1709.80
566.12400	1732.30
566.85200	1745.80
567.57900	1757.30
568.30700	1790.70
569.03400	1789.90
569.76100	1842.70
570.48900	1865.20
571.21600	1907.20
571.94300	1946.50
572.66900	1986.80
573.39600	2048.30
574.12300	2120.90
574.85000	2154.50
575.57600	2250.30
576.30200	2363.30
577.02900	2479.60
577.75500	2601.90
578.48100	2790.20
579.20700	2939.50
579.93300	3195.30
580.65900	4512.30
581.38500	3556.10
582.11000	3631.60
582.83600	3825.00
583.56100	3848.50
584.28700	3835.20
585.01200	3720.40
585.73700	3463.40
586.46200	3169.50
587.18700	2811.90
587.91200	2505.30
588.63700	2228.50
589.36100	2054.20
590.08600	1937.50
590.81100	1847.30
591.53500	1812.10
592.25900	1789.30
592.98300	1756.20
593.70800	1721.60
594.43200	1716.10
595.15600	1711.40
595.87900	1691.90
596.60300	1683.90
597.32700	1675.40
598.05000	1676.40
598.77400	1678.50
599.49700	1678.60
600.22100	1661.90
600.94400	1670.90
601.66700	1664.90
602.39000	1660.00
603.11300	1668.40
603.83500	1660.80
604.55800	1667.80
605.28100	1660.80
606.00300	1676.30
606.72600	1660.30
607.44800	1659.00
608.17000	1668.30
608.89200	1687.70
609.61500	1669.80
610.33700	1666.90
611.05800	1665.90
611.78000	1680.30
612.50200	1672.20
613.22300	1683.70
613.94500	1681.60
614.66600	1691.60
615.38800	1685.50
616.10900	1696.20
616.83000	1682.90
617.55100	1681.00
618.27200	1683.50
618.99300	1682.90
619.71300	1670.60
620.43400	1688.60
621.15500	1681.30
621.87500	1683.10
622.59500	1682.40
623.31600	1690.20
624.03600	1680.30
624.75600	1689.10
625.47600	1676.00
626.19600	1684.50
626.91600	1679.50
627.63500	1667.00
628.35500	1686.80
629.07500	1680.80
629.79400	1691.90
630.51300	1680.50
631.23300	1678.10
631.95200	1681.60
632.67100	1686.70
633.39000	1693.10
634.10900	1703.10
634.82700	1695.60
635.54600	1695.80
636.26500	1696.70
636.98300	1687.50
637.70200	1690.00
638.42000	1691.00
639.13800	1704.70
639.85600	1705.30
640.57400	1707.50
641.29200	1704.40
642.01000	1719.00
642.72800	1726.60
643.44600	1737.60
644.16300	1726.70
644.88100	1744.20
645.59800	1744.40
646.31500	1732.00
647.03300	1745.20
647.75000	1741.10
648.46700	1746.90
649.18400	1750.30
649.90000	1760.60
650.61700	1742.70
651.33400	1731.90
652.05000	1742.00
652.76700	1725.80
653.48300	1722.90
654.20000	1717.10
654.91600	1722.00
655.63200	1722.00
656.34800	1732.10
657.06400	1734.20
657.78000	1747.00
658.49500	1752.60
659.21100	1745.80
659.92600	1757.30
660.64200	1770.60
661.35700	1759.50
662.07300	1785.80
662.78800	1798.90
663.50300	1791.30
664.21800	1796.00
664.93300	1822.70
665.64800	1810.00
666.36200	1815.60
667.07700	1830.40
667.79100	1827.90
668.50600	1846.40
669.22000	1849.30
669.93400	1855.60
670.64900	1878.90
671.36300	1873.30
672.07700	1883.20
672.79100	1898.40
673.50400	1901.70
674.21800	1906.00
674.93200	1914.80
675.64500	1895.70
676.35900	1901.70
677.07200	1888.10
677.78500	1905.20
678.49800	1887.20
679.21100	1890.20
679.92400	1881.20
680.63700	1889.80
681.35000	1893.00
682.06300	1891.20
682.77500	1887.80
683.48800	1915.00
684.20000	1900.10
684.91300	1935.90
685.62500	1928.30
686.33700	1954.10
687.04900	1994.70
687.76100	2015.00
688.47300	2073.20
689.18500	2111.40
689.89600	2141.80
690.60800	2170.50
691.32000	2213.40
692.03100	2266.10
692.74200	2295.80
693.45400	2338.00
694.16500	2358.80
694.87600	2362.30
695.58700	2396.90
696.29800	2403.70
697.00800	2452.20
697.71900	2437.90
698.43000	2493.00
699.14000	2513.00
699.85100	2532.60
700.56100	2533.50
701.27100	2489.80
701.98100	2512.90
702.69100	2470.00
703.40100	2424.40
704.11100	2413.80
704.82100	2360.30
705.53100	2317.40
706.24000	2247.10
706.95000	2210.00
707.65900	2178.80
708.36900	2155.80
709.07800	2112.70
709.78700	2088.30
710.49600	2057.00
711.20500	1996.80
711.91400	1925.70
712.62300	1854.10
713.33100	1823.50
714.04000	1811.30
714.74900	1768.30
715.45700	1753.60
716.16500	1731.30
716.87400	1735.80
717.58200	1714.60
718.29000	1707.20
718.99800	1690.60
719.70600	1689.10
720.41400	1697.10
721.12100	1667.80
721.82900	1665.80
722.53600	1665.10
723.24400	1649.20
723.95100	1646.10
724.65800	1643.20
725.36600	1628.40
726.07300	1627.10
726.78000	1619.30
727.48700	1624.70
728.19300	1617.30
728.90000	1606.20
729.60700	1621.30
730.31300	1614.90
731.02000	1624.90
731.72600	1614.00
732.43200	1613.20
733.13900	1609.90
733.84500	1632.70
734.55100	1617.50
735.25700	1637.30
735.96200	1631.60
736.66800	1628.60
737.37400	1633.70
738.07900	1621.70
738.78500	1630.10
739.49000	1618.80
740.19600	1619.70
740.90100	1610.90
741.60600	1608.30
742.31100	1599.30
743.01600	1601.30
743.72100	1596.10
744.42500	1601.60
745.13000	1589.50
745.83500	1600.50
746.53900	1591.30
747.24400	1605.30
747.94800	1614.50
748.65200	1620.50
749.35600	1634.70
750.06000	1642.80
750.76400	1662.00
751.46800	1681.20
752.17200	1691.10
752.87600	1698.20
753.57900	1696.30
754.28300	1687.80
754.98600	1700.70
755.68900	1694.40
756.39300	1695.10
757.09600	1684.50
757.79900	1678.90
758.50200	1690.50
759.20500	1685.00
759.90800	1674.10
760.61000	1705.70
761.31300	1682.80
762.01500	1701.40
762.71800	1687.20
763.42000	1703.70
764.12300	1716.80
764.82500	1720.90
765.52700	1726.10
766.22900	1731.10
766.93100	1736.50
767.63300	1747.00
768.33400	1740.40
769.03600	1762.20
769.73700	1740.10
770.43900	1735.00
771.14000	1733.90
771.84200	1695.80
772.54300	1688.10
773.24400	1669.40
773.94500	1650.90
774.64600	1643.70
775.34700	1595.50
776.04800	1586.90
776.74800	1567.30
777.44900	1567.50
778.14900	1552.80
778.85000	1549.20
779.55000	1539.90
780.25000	1528.60
780.95000	1542.50
781.65100	1523.90
782.35000	1523.60
783.05000	1514.00
783.75000	1523.20
784.45000	1523.70
785.15000	1519.90
785.84900	1512.50
786.54900	1509.10
787.24800	1518.30
787.94700	1510.40
788.64600	1508.50
789.34500	1494.60
790.04400	1502.70
790.74300	1496.80
791.44200	1510.70
792.14100	1498.40
792.84000	1514.30
793.53800	1509.70
794.23700	1512.00
794.93500	1500.80
795.63300	1505.80
796.33200	1517.30
797.03000	1506.90
797.72800	1510.50
798.42600	1512.60
799.12400	1509.10
799.82100	1516.90
800.51900	1513.20
801.21700	1514.70
801.91400	1512.10
802.61200	1518.70
803.30900	1508.30
804.00600	1521.20
804.70300	1532.00
805.40100	1526.90
806.09800	1530.80
806.79400	1534.30
807.49100	1532.20
808.18800	1535.90
808.88500	1534.90
809.58100	1544.20
810.27800	1555.50
810.97400	1560.00
811.67000	1552.50
812.36700	1564.70
813.06300	1600.00
813.75900	1572.30
814.45500	1577.10
815.15100	1569.50
815.84600	1589.20
816.54200	1592.50
817.23800	1583.40
817.93300	1574.00
818.62900	1568.90
819.32400	1567.60
820.01900	1569.60
820.71400	1561.00
821.41000	1562.90
822.10500	1563.70
822.79900	1563.50
823.49400	1564.90
824.18900	1581.30
824.88400	1570.70
825.57800	1578.60
826.27300	1569.80
826.96700	1587.80
827.66100	1578.10
828.35600	1586.70
829.05000	1591.30
829.74400	1582.60
830.43800	1589.80
831.13200	1583.50
831.82500	1571.40
832.51900	1575.70
833.21300	1573.50
833.90600	1574.10
834.60000	1573.20
835.29300	1560.30
835.98600	1566.90
836.68000	1562.90
837.37300	1565.50
838.06600	1552.60
838.75900	1552.50
839.45200	1552.90
840.14400	1553.10
840.83700	1540.70
841.53000	1543.70
842.22200	1530.00
842.91400	1530.80
843.60700	1522.10
844.29900	1531.60
844.99100	1543.00
845.68300	1537.70
846.37500	1537.20
847.06700	1538.20
847.75900	1543.00
848.45100	1539.20
849.14200	1538.80
849.83400	1527.80
850.52500	1539.10
851.21700	1526.70
851.90800	1530.90
852.59900	1533.40
853.29000	1529.90
853.98100	1529.10
854.67200	1526.80
855.36300	1536.30
856.05400	1528.90
856.74500	1533.90
857.43500	1539.70
858.12600	1522.10
858.81600	1534.20
859.50700	1521.80
860.19700	1528.70
860.88700	1527.40
861.57700	1533.20
862.26700	1535.60
862.95700	1538.40
863.64700	1530.50
864.33700	1542.80
865.02700	1540.70
865.71600	1563.50
866.40600	1555.80
867.09500	1549.40
867.78400	1565.30
868.47400	1559.80
869.16300	1551.20
869.85200	1551.20
870.54100	1571.10
871.23000	1558.60
871.91900	1561.00
872.60700	1574.50
873.29600	1564.60
873.98500	1574.20
874.67300	1571.80
875.36200	1576.30
876.05000	1566.80
876.73800	1556.80
877.42600	1559.10
878.11400	1563.30
878.80200	1562.30
879.49000	1556.70
880.17800	1549.00
880.86600	1547.90
881.55300	1540.40
882.24100	1533.20
882.92800	1534.30
883.61600	1530.30
884.30300	1521.80
884.99000	1520.30
885.67700	1531.60
886.36500	1523.80
887.05200	1533.80
887.73800	1518.20
888.42500	1530.70
889.11200	1515.20
889.79900	1510.90
890.48500	1536.70
891.17200	1517.80
891.85800	1509.60
892.54400	1529.20
893.23000	1513.90
893.91700	1514.10
894.60300	1510.40
895.28900	1509.70
895.97400	1517.30
896.66000	1514.30
897.34600	1512.70
898.03200	1503.60
898.71700	1495.90
899.40300	1499.40
900.08800	1501.10
900.77300	1505.40
901.45800	1485.70
902.14300	1502.00
902.82900	1498.10
903.51300	1490.50
904.19800	1489.80
904.88300	1491.50
905.56800	1497.30
906.25200	1486.70
906.93700	1492.60
907.62100	1489.00
908.30600	1485.50
908.99000	1485.60
909.67400	1487.10
910.35800	1482.90
911.04200	1471.50
911.72600	1478.80
912.41000	1486.20
913.09400	1480.20
913.77800	1470.10
914.46100	1476.50
915.14500	1482.90
915.82800	1479.00
916.51200	1491.60
917.19500	1487.60
917.87800	1480.50
918.56100	1483.90
919.24400	1481.80
919.92700	1483.20
920.61000	1478.60
921.29300	1484.60
921.97500	1490.20
922.65800	1493.50
923.34100	1501.00
924.02300	1489.70
924.70500	1503.30
925.38800	1504.40
926.07000	1516.80
926.75200	1503.40
927.43400	1511.50
928.11600	1521.70
928.79800	1523.50
929.47900	1522.00
930.16100	1533.00
930.84300	1531.90
931.52400	1541.70
932.20600	1527.50
932.88700	1535.10
933.56800	1538.90
934.25000	1542.20
934.93100	1546.20
935.61200	1529.70
936.29300	1537.30
936.97400	1525.60
937.65400	1529.10
938.33500	1519.10
939.01600	1515.60
939.69600	1519.00
940.37700	1493.00
941.05700	1490.30
941.73700	1496.90
942.41700	1492.00
943.09800	1479.00
943.77800	1471.30
944.45800	1477.80
945.13700	1465.50
945.81700	1468.30
946.49700	1462.40
947.17700	1476.80
947.85600	1457.30
948.53600	1459.70
949.21500	1465.90
949.89400	1461.20
950.57300	1456.00
951.25300	1457.00
951.93200	1457.00
952.61100	1460.30
953.28900	1456.30
953.96800	1457.40
954.64700	1460.80
955.32600	1458.60
956.00400	1458.90
956.68300	1457.40
957.36100	1462.60
958.03900	1463.00
958.71800	1449.20
959.39600	1456.90
960.07400	1452.50
960.75200	1454.60
961.43000	1448.10
962.10700	1446.20
962.78500	1449.50
963.46300	1452.10
964.14000	1451.20
964.81800	1450.90
965.49500	1450.40
966.17300	1445.80
966.85000	1449.00
967.52700	1452.20
968.20400	1443.90
968.88100	1458.50
969.55800	1447.30
970.23500	1456.20
970.91200	1444.60
971.58800	1440.90
972.26500	1441.80
972.94100	1452.80
973.61800	1446.50
974.29400	1441.00
974.97000	1439.10
975.64700	1449.10
976.32300	1447.40
976.99900	1445.80
977.67500	1451.80
978.35000	1445.30
979.02600	1441.60
979.70200	1451.40
980.37800	1446.40
981.05300	1448.60
981.72800	1440.80
982.40400	1452.00
983.07900	1442.60
983.75400	1449.80
984.42900	1439.00
985.10400	1444.90
985.77900	1447.00
986.45400	1452.80
987.12900	1451.80
987.80400	1448.00
988.47800	1448.80
989.15300	1458.20
989.82700	1452.50
990.50200	1454.90
991.17600	1454.00
991.85000	1467.50
992.52500	1462.00
993.19900	1456.70
993.87300	1459.60
994.54600	1456.20
995.22000	1455.90
995.89400	1467.20
996.56800	1461.80
997.24100	1451.40
997.91500	1450.20
998.58800	1451.20
999.26200	1453.70
999.93500	1465.20
1000.61000	1462.00
1001.28000	1461.00
1001.95000	1455.10
1002.63000	1461.60
1003.30000	1449.00
1003.97000	1457.70
1004.65000	1442.40
1005.32000	1452.30
1005.99000	1450.70
1006.66000	1456.50
1007.34000	1449.30
1008.01000	1445.40
1008.68000	1444.60
1009.35000	1455.80
1010.02000	1447.50
1010.70000	1449.90
1011.37000	1440.20
1012.04000	1459.70
1012.71000	1449.30
1013.38000	1454.40
1014.05000	1453.10
1014.73000	1447.20
1015.40000	1459.60
1016.07000	1449.70
1016.74000	1449.50
1017.41000	1448.00
1018.08000	1451.30
1018.75000	1440.90
1019.42000	1455.00
1020.09000	1448.90
1020.77000	1451.20
1021.44000	1452.90
1022.11000	1449.00
1022.78000	1445.20
1023.45000	1452.80
1024.12000	1457.80
1024.79000	1454.70
1025.46000	1455.90
1026.13000	1459.70
1026.80000	1455.10
1027.47000	1448.80
1028.14000	1453.90
1028.81000	1455.50
1029.48000	1447.90
1030.15000	1453.50
1030.82000	1451.40
1031.49000	1455.20
1032.16000	1455.80
1032.83000	1448.10
1033.49000	1458.60
1034.16000	1454.90
1034.83000	1452.00
1035.50000	1446.60
1036.17000	1461.90
1036.84000	1458.70
1037.51000	1454.20
1038.18000	1453.70
1038.85000	1464.60
1039.51000	1459.00
1040.18000	1463.30
1040.85000	1465.50
1041.52000	1456.90
1042.19000	1455.60
1042.86000	1457.90
1043.52000	1459.40
1044.19000	1461.10
1044.86000	1460.50
1045.53000	1464.60
1046.20000	1470.40
1046.86000	1466.90
1047.53000	1462.80
1048.20000	1465.80
1048.87000	1467.30
1049.53000	1467.30
1050.20000	1459.60
1050.87000	1459.00
1051.53000	1467.80
1052.20000	1464.80
1052.87000	1462.20
1053.54000	1459.30
1054.20000	1461.50
1054.87000	1463.20
1055.54000	1456.20
1056.20000	1455.40
1056.87000	1455.70
1057.53000	1454.80
1058.20000	1457.20
1058.87000	1447.80
1059.53000	1456.80
1060.20000	1457.60
1060.87000	1444.20
1061.53000	1439.70
1062.20000	1448.30
1062.86000	1440.20
1063.53000	1448.60
1064.19000	1447.20
1064.86000	1436.00
1065.52000	1435.80
1066.19000	1439.60
1066.86000	1442.60
1067.52000	1443.00
1068.19000	1442.50
1068.85000	1433.50
1069.52000	1437.70
1070.18000	1425.80
1070.85000	1435.80
1071.51000	1435.00
1072.17000	1433.70
1072.84000	1445.70
1073.50000	1432.10
1074.17000	1435.30
1074.83000	1435.80
1075.50000	1440.00
1076.16000	1428.20
1076.83000	1433.30
1077.49000	1437.60
1078.15000	1422.80
1078.82000	1436.80
1079.48000	1427.60
1080.14000	1429.70
1080.81000	1435.50
1081.47000	1421.90
1082.14000	1422.10
1082.80000	1427.90
1083.46000	1431.50
1084.13000	1427.10
1084.79000	1427.60
1085.45000	1423.30
1086.11000	1421.40
1086.78000	1424.20
1087.44000	1429.40
1088.10000	1421.90
1088.77000	1431.90
1089.43000	1429.10
1090.09000	1427.60
1090.75000	1418.00
1091.42000	1418.60
1092.08000	1417.30
1092.74000	1421.10
1093.40000	1426.90
1094.06000	1423.50
1094.73000	1421.90
1095.39000	1426.00
1096.05000	1425.70
1096.71000	1424.50
1097.37000	1423.10
1098.03000	1425.90
1098.70000	1422.30
1099.36000	1425.10
1100.02000	1424.50
1100.68000	1421.30
1101.34000	1425.30
1102.00000	1426.70
1102.66000	1418.90
1103.32000	1423.80
1103.99000	1422.20
1104.65000	1427.80
1105.31000	1420.40
1105.97000	1432.70
1106.63000	1427.70
1107.29000	1430.50
1107.95000	1427.00
1108.61000	1424.00
1109.27000	1423.50
1109.93000	1418.80
1110.59000	1426.30
1111.25000	1426.70
1111.91000	1427.50
1112.57000	1434.30
1113.23000	1428.80
1113.89000	1430.20
1114.55000	1432.80
1115.21000	1425.10
1115.87000	1427.20
1116.53000	1423.10
1117.19000	1426.20
1117.85000	1427.60
1118.51000	1430.40
1119.16000	1428.30
1119.82000	1450.60
1120.48000	1416.40
1121.14000	1422.30
1121.80000	1425.40
1122.46000	1414.00
1123.12000	1422.80
1123.78000	1428.00
1124.44000	1413.40
1125.09000	1413.80
1125.75000	1416.30
1126.41000	1423.40
1127.07000	1406.30
1127.73000	1416.90
1128.38000	1407.50
1129.04000	1415.10
1129.70000	1418.10
1130.36000	1401.60
1131.02000	1406.80
1131.67000	1405.40
1132.33000	1405.20
1132.99000	1417.10
1133.65000	1507.90
1134.30000	1454.70
1134.96000	1410.90
1135.62000	1405.70
1136.27000	1399.40
1136.93000	1403.80
1137.59000	1406.30
1138.25000	1407.10
1138.90000	1404.50
1139.56000	1403.40
1140.22000	1407.10
1140.87000	1405.00
1141.53000	1401.20
1142.19000	1395.70
1142.84000	1407.30
1143.50000	1396.20
1144.15000	1399.60
1144.81000	1399.90
1145.47000	1402.20
1146.12000	1405.60
1146.78000	1405.50
1147.43000	1400.20
1148.09000	1399.00
1148.75000	1403.50
1149.40000	1402.60
1150.06000	1408.50
1150.71000	1402.40
1151.37000	1402.10
1152.02000	1401.10
1152.68000	1409.50
1153.33000	1397.70
1153.99000	1407.70
1154.64000	1402.70
1155.30000	1404.10
1155.95000	1395.40
1156.61000	1409.10
1157.26000	1407.80
1157.92000	1400.00
1158.57000	1404.80
1159.23000	1402.80
1159.88000	1405.80
1160.53000	1398.90
1161.19000	1406.20
1161.84000	1399.00
1162.50000	1421.60
1163.15000	1400.80
1163.80000	1405.20
1164.46000	1402.00
1165.11000	1403.60
1165.77000	1403.60
1166.42000	1407.60
1167.07000	1405.60
1167.73000	1403.30
1168.38000	1403.90
1169.03000	1411.10
1169.69000	1395.60
1170.34000	1403.80
1170.99000	1399.00
1171.65000	1403.10
1172.30000	1406.60
1172.95000	1408.40
1173.60000	1405.80
1174.26000	1399.60
1174.91000	1405.80
1175.56000	1396.90
1176.21000	1397.90
1176.87000	1400.90
1177.52000	1402.80
1178.17000	1394.80
1178.82000	1398.10
1179.48000	1397.60
1180.13000	1399.80
1180.78000	1398.10
1181.43000	1403.50
1182.08000	1400.30
1182.73000	1407.70
1183.39000	1395.80
1184.04000	1404.70
1184.69000	1407.70
1185.34000	1402.40
1185.99000	1397.30
1186.64000	1399.00
1187.29000	1400.20
1187.95000	1402.70
1188.60000	1396.60
1189.25000	1399.40
1189.90000	1398.30
1190.55000	1396.10
1191.20000	1397.60
1191.85000	1392.40
1192.50000	1392.10
1193.15000	1397.80
1193.80000	1399.60
1194.45000	1406.50
1195.10000	1397.40