4.026260570 90.0
4.078781701 99.0
4.131302831 81.0
4.183823962 84.0
4.236345093 79.0
4.288866224 79.0
4.341387354 97.0
4.393908485 94.0
4.446429616 113.0
4.498950746 91.0
4.551471877 85.0
4.603993008 86.0
4.656514138 118.0
4.709035269 99.0
4.761556400 86.0
4.814077531 109.0
4.866598661 95.0
4.919119792 82.0
4.971640923 90.0
5.024162053 105.0
5.076683184 81.0
5.129204315 110.0
5.181725445 96.0
5.234246576 105.0
5.286767707 88.0
5.339288838 115.0
5.391809968 118.0
5.444331099 101.0
5.496852230 89.0
5.549373360 90.0
5.601894491 97.0
5.654415622 91.0
5.706936752 83.0
5.759457883 96.0
5.811979014 86.0
5.864500145 88.0
5.917021275 113.0
5.969542406 91.0
6.022063537 108.0
6.074584667 90.0
6.127105798 99.0
6.179626929 112.0
6.232148059 110.0
6.284669190 81.0
6.337190321 113.0
6.389711452 101.0
6.442232582 92.0
6.494753713 85.0
6.547274844 134.0
6.599795974 94.0
6.652317105 88.0
6.704838236 94.0
6.757359366 100.0
6.809880497 103.0
6.862401628 100.0
6.914922759 99.0
6.967443889 129.0
7.019965020 109.0
7.072486151 101.0
7.125007281 110.0
7.177528412 91.0
7.230049543 105.0
7.282570673 96.0
7.335091804 108.0
7.387612935 89.0
7.440134066 100.0
7.492655196 108.0
7.545176327 117.0
7.597697458 84.0
7.650218588 110.0
7.702739719 99.0
7.755260850 105.0
7.807781980 118.0
7.860303111 92.0
7.912824242 110.0
7.965345373 99.0
8.017866503 81.0
8.070387634 108.0
8.122908765 108.0
8.175429895 89.0
8.227951026 89.0
8.280472157 93.0
8.332993287 105.0
8.385514418 107.0
8.438035549 107.0
8.490556680 87.0
8.543077810 115.0
8.595598941 78.0
8.648120072 97.0
8.700641202 104.0
8.753162333 101.0
8.805683464 106.0
8.858204594 90.0
8.910725725 120.0
8.963246856 110.0
9.015767987 90.0
9.068289117 110.0
9.120810248 98.0
9.173331379 108.0
9.225852509 86.0
9.278373640 99.0
9.330894771 106.0
9.383415901 77.0
9.435937032 70.0
9.488458163 105.0
9.540979294 85.0
9.593500424 104.0
9.646021555 79.0
9.698542686 93.0
9.751063816 93.0
9.803584947 109.0
9.856106078 93.0
9.908627208 106.0
9.961148339 92.0
10.013669470 83.0
10.066190601 105.0
10.118711731 106.0
10.171232862 92.0
10.223753993 104.0
10.276275123 89.0
10.328796254 97.0
10.381317385 97.0
10.433838515 80.0
10.486359646 87.0
10.538880777 108.0
10.591401908 98.0
10.643923038 120.0
10.696444169 81.0
10.748965300 91.0
10.801486430 91.0
10.854007561 87.0
10.906528692 92.0
10.959049822 94.0
11.011570953 97.0
11.064092084 89.0
11.116613215 95.0
11.169134345 91.0
11.221655476 93.0
11.274176607 100.0
11.326697737 86.0
11.379218868 117.0
11.431739999 78.0
11.484261129 105.0
11.536782260 92.0
11.589303391 89.0
11.641824522 73.0
11.694345652 97.0
11.746866783 88.0
11.799387914 96.0
11.851909044 105.0
11.904430175 109.0
11.956951306 80.0
12.009472436 93.0
12.061993567 81.0
12.114514698 66.0
12.167035829 101.0
12.219556959 93.0
12.272078090 96.0
12.324599221 95.0
12.377120351 92.0
12.429641482 84.0
12.482162613 100.0
12.534683744 87.0
12.587204874 89.0
12.639726005 101.0
12.692247136 72.0
12.744768266 84.0
12.797289397 74.0
12.849810528 83.0
12.902331658 95.0
12.954852789 78.0
13.007373920 91.0
13.059895051 101.0
13.112416181 92.0
13.164937312 106.0
13.217458443 71.0
13.269979573 98.0
13.322500704 65.0
13.375021835 101.0
13.427542965 94.0
13.480064096 80.0
13.532585227 82.0
13.585106358 86.0
13.637627488 95.0
13.690148619 94.0
13.742669750 83.0
13.795190880 69.0
13.847712011 91.0
13.900233142 78.0
13.952754272 73.0
14.005275403 86.0
14.057796534 62.0
14.110317665 80.0
14.162838795 95.0
14.215359926 77.0
14.267881057 77.0
14.320402187 89.0
14.372923318 85.0
14.425444449 83.0
14.477965579 69.0
14.530486710 80.0
14.583007841 89.0
14.635528972 84.0
14.688050102 87.0
14.740571233 78.0
14.793092364 83.0
14.845613494 85.0
14.898134625 73.0
14.950655756 86.0
15.003176886 73.0
15.055698017 76.0
15.108219148 90.0
15.160740279 87.0
15.213261409 79.0
15.265782540 98.0
15.318303671 76.0
15.370824801 76.0
15.423345932 59.0
15.475867063 83.0
15.528388193 78.0
15.580909324 76.0
15.633430455 72.0
15.685951586 84.0
15.738472716 84.0
15.790993847 79.0
15.843514978 84.0
15.896036108 64.0
15.948557239 73.0
16.001078370 73.0
16.053599500 82.0
16.106120631 72.0
16.158641762 98.0
16.211162893 69.0
16.263684023 73.0
16.316205154 85.0
16.368726285 70.0
16.421247415 85.0
16.473768546 70.0
16.526289677 72.0
16.578810807 75.0
16.631331938 60.0
16.683853069 69.0
16.736374200 60.0
16.788895330 90.0
16.841416461 69.0
16.893937592 71.0
16.946458722 63.0
16.998979853 72.0
17.051500984 59.0
17.104022114 89.0
17.156543245 79.0
17.209064376 69.0
17.261585507 78.0
17.314106637 64.0
17.366627768 61.0
17.419148899 62.0
17.471670029 65.0
17.524191160 65.0
17.576712291 67.0
17.629233421 84.0
17.681754552 70.0
17.734275683 61.0
17.786796814 66.0
17.839317944 78.0
17.891839075 86.0
17.944360206 57.0
17.996881336 66.0
18.049402467 63.0
18.101923598 77.0
18.154444728 71.0
18.206965859 65.0
18.259486990 73.0
18.312008121 57.0
18.364529251 69.0
18.417050382 70.0
18.469571513 62.0
18.522092643 77.0
18.574613774 65.0
18.627134905 59.0
18.679656035 71.0
18.732177166 74.0
18.784698297 84.0
18.837219428 60.0
18.889740558 56.0
18.942261689 61.0
18.994782820 72.0
19.047303950 69.0
19.099825081 60.0
19.152346212 70.0
19.204867342 62.0
19.257388473 65.0
19.309909604 60.0
19.362430735 66.0
19.414951865 76.0
19.467472996 75.0
19.519994127 67.0
19.572515257 52.0
19.625036388 55.0
19.677557519 77.0
19.730078649 69.0
19.782599780 63.0
19.835120911 61.0
19.887642042 75.0
19.940163172 74.0
19.992684303 64.0
20.045205434 64.0
20.097726564 51.0
20.150247695 54.0
20.202768826 56.0
20.255289956 61.0
20.307811087 57.0
20.360332218 86.0
20.412853349 50.0
20.465374479 63.0
20.517895610 66.0
20.570416741 55.0
20.622937871 55.0
20.675459002 78.0
20.727980133 98.0
20.780501264 136.0
20.833022394 247.0
20.885543525 362.0
20.938064656 229.0
20.990585786 88.0
21.043106917 61.0
21.095628048 52.0
21.148149178 63.0
21.200670309 50.0
21.253191440 67.0
21.305712571 64.0
21.358233701 55.0
21.410754832 59.0
21.463275963 54.0
21.515797093 55.0
21.568318224 67.0
21.620839355 59.0
21.673360485 62.0
21.725881616 62.0
21.778402747 55.0
21.830923878 57.0
21.883445008 72.0
21.935966139 61.0
21.988487270 53.0
22.041008400 44.0
22.093529531 70.0
22.146050662 71.0
22.198571792 64.0
22.251092923 49.0
22.303614054 51.0
22.356135185 75.0
22.408656315 61.0
22.461177446 42.0
22.513698577 51.0
22.566219707 64.0
22.618740838 57.0
22.671261969 51.0
22.723783099 43.0
22.776304230 72.0
22.828825361 75.0
22.881346492 65.0
22.933867622 71.0
22.986388753 78.0
23.038909884 88.0
23.091431014 128.0
23.143952145 189.0
23.196473276 181.0
23.248994406 119.0
23.301515537 99.0
23.354036668 84.0
23.406557799 61.0
23.459078929 51.0
23.511600060 61.0
23.564121191 55.0
23.616642321 53.0
23.669163452 35.0
23.721684583 53.0
23.774205713 49.0
23.826726844 50.0
23.879247975 58.0
23.931769106 59.0
23.984290236 60.0
24.036811367 54.0
24.089332498 49.0
24.141853628 60.0
24.194374759 59.0
24.246895890 60.0
24.299417020 65.0
24.351938151 50.0
24.404459282 49.0
24.456980413 37.0
24.509501543 48.0
24.562022674 28.0
24.614543805 59.0
24.667064935 54.0
24.719586066 46.0
24.772107197 45.0
24.824628327 50.0
24.877149458 48.0
24.929670589 64.0
24.982191720 46.0
25.034712850 50.0
25.087233981 58.0
25.139755112 51.0
25.192276242 44.0
25.244797373 50.0
25.297318504 54.0
25.349839634 46.0
25.402360765 54.0
25.454881896 54.0
25.507403027 55.0
25.559924157 48.0
25.612445288 46.0
25.664966419 41.0
25.717487549 58.0
25.770008680 40.0
25.822529811 43.0
25.875050941 56.0
25.927572072 47.0
25.980093203 59.0
26.032614334 53.0
26.085135464 51.0
26.137656595 43.0
26.190177726 60.0
26.242698856 62.0
26.295219987 55.0
26.347741118 56.0
26.400262248 89.0
26.452783379 103.0
26.505304510 189.0
26.557825641 395.0
26.610346771 1118.0
26.662867902 2371.0
26.715389033 1342.0
26.767910163 263.0
26.820431294 63.0
26.872952425 50.0
26.925473555 51.0
26.977994686 45.0
27.030515817 44.0
27.083036948 42.0
27.135558078 59.0
27.188079209 58.0
27.240600340 55.0
27.293121470 43.0
27.345642601 49.0
27.398163732 57.0
27.450684862 49.0
27.503205993 50.0
27.555727124 56.0
27.608248255 55.0
27.660769385 47.0
27.713290516 47.0
27.765811647 45.0
27.818332777 64.0
27.870853908 40.0
27.923375039 56.0
27.975896169 48.0
28.028417300 50.0
28.080938431 49.0
28.133459562 41.0
28.185980692 45.0
28.238501823 57.0
28.291022954 36.0
28.343544084 44.0
28.396065215 46.0
28.448586346 37.0
28.501107476 49.0
28.553628607 48.0
28.606149738 43.0
28.658670869 55.0
28.711191999 48.0
28.763713130 49.0
28.816234261 59.0
28.868755391 70.0
28.921276522 51.0
28.973797653 79.0
29.026318784 73.0
29.078839914 69.0
29.131361045 90.0
29.183882176 97.0
29.236403306 142.0
29.288924437 173.0
29.341445568 280.0
29.393966698 618.0
29.446487829 1229.0
29.499008960 2999.0
29.551530091 5238.0
29.604051221 4387.0
29.656572352 1769.0
29.709093483 504.0
29.761614613 243.0
29.814135744 194.0
29.866656875 125.0
29.919178005 93.0
29.971699136 84.0
30.024220267 89.0
30.076741398 89.0
30.129262528 76.0
30.181783659 67.0
30.234304790 48.0
30.286825920 56.0
30.339347051 42.0
30.391868182 52.0
30.444389312 59.0
30.496910443 56.0
30.549431574 45.0
30.601952705 47.0
30.654473835 45.0
30.706994966 65.0
30.759516097 77.0
30.812037227 121.0
30.864558358 249.0
30.917079489 698.0
30.969600619 1569.0
31.022121750 728.0
31.074642881 142.0
31.127164012 65.0
31.179685142 45.0
31.232206273 41.0
31.284727404 30.0
31.337248534 51.0
31.389769665 50.0
31.442290796 49.0
31.494811926 45.0
31.547333057 81.0
31.599854188 121.0
31.652375319 106.0
31.704896449 87.0
31.757417580 50.0
31.809938711 40.0
31.862459841 48.0
31.914980972 47.0
31.967502103 38.0
32.020023233 42.0
32.072544364 40.0
32.125065495 37.0
32.177586626 33.0
32.230107756 37.0
32.282628887 44.0
32.335150018 36.0
32.387671148 42.0
32.440192279 46.0
32.492713410 28.0
32.545234540 25.0
32.597755671 36.0
32.650276802 34.0
32.702797933 27.0
32.755319063 41.0
32.807840194 36.0
32.860361325 27.0
32.912882455 25.0
32.965403586 36.0
33.017924717 53.0
33.070445847 35.0
33.122966978 39.0
33.175488109 31.0
33.228009240 34.0
33.280530370 46.0
33.333051501 40.0
33.385572632 42.0
33.438093762 40.0
33.490614893 29.0
33.543136024 49.0
33.595657154 51.0
33.648178285 34.0
33.700699416 40.0
33.753220547 39.0
33.805741677 34.0
33.858262808 23.0
33.910783939 37.0
33.963305069 39.0
34.015826200 27.0
34.068347331 47.0
34.120868461 36.0
34.173389592 34.0
34.225910723 39.0
34.278431854 26.0
34.330952984 27.0
34.383474115 33.0
34.435995246 46.0
34.488516376 30.0
34.541037507 25.0
34.593558638 31.0
34.646079768 28.0
34.698600899 30.0
34.751122030 40.0
34.803643161 36.0
34.856164291 33.0
34.908685422 47.0
34.961206553 24.0
35.013727683 27.0
35.066248814 38.0
35.118769945 39.0
35.171291075 33.0
35.223812206 38.0
35.276333337 44.0
35.328854468 43.0
35.381375598 36.0
35.433896729 21.0
35.486417860 47.0
35.538938990 37.0
35.591460121 41.0
35.643981252 34.0
35.696502382 43.0
35.749023513 35.0
35.801544644 45.0
35.854065775 37.0
35.906586905 53.0
35.959108036 67.0
36.011629167 93.0
36.064150297 124.0
36.116671428 223.0
36.169192559 210.0
36.221713689 109.0
36.274234820 76.0
36.326755951 64.0
36.379277082 52.0
36.431798212 56.0
36.484319343 76.0
36.536840474 137.0
36.589361604 151.0
36.641882735 72.0
36.694403866 32.0
36.746924996 30.0
36.799446127 35.0
36.851967258 48.0
36.904488389 32.0
36.957009519 25.0
37.009530650 41.0
37.062051781 34.0
37.114572911 30.0
37.167094042 38.0
37.219615173 33.0
37.272136304 38.0
37.324657434 43.0
37.377178565 60.0
37.429699696 62.0
37.482220826 44.0
37.534741957 36.0
37.587263088 53.0
37.639784218 41.0
37.692305349 56.0
37.744826480 72.0
37.797347611 79.0
37.849868741 113.0
37.902389872 157.0
37.954911003 263.0
38.007432133 454.0
38.059953264 728.0
38.112474395 1389.0
38.164995525 1428.0
38.217516656 894.0
38.270037787 460.0
38.322558918 276.0
38.375080048 156.0
38.427601179 118.0
38.480122310 87.0
38.532643440 67.0
38.585164571 65.0
38.637685702 46.0
38.690206832 51.0
38.742727963 53.0
38.795249094 46.0
38.847770225 42.0
38.900291355 40.0
38.952812486 45.0
39.005333617 50.0
39.057854747 25.0
39.110375878 34.0
39.162897009 32.0
39.215418139 45.0
39.267939270 56.0
39.320460401 67.0
39.372981532 84.0
39.425502662 128.0
39.478023793 260.0
39.530544924 338.0
39.583066054 322.0
39.635587185 325.0
39.688108316 190.0
39.740629446 142.0
39.793150577 81.0
39.845671708 58.0
39.898192839 47.0
39.950713969 57.0
40.003235100 43.0
40.055756231 42.0
40.108277361 37.0
40.160798492 33.0
40.213319623 49.0
40.265840753 66.0
40.318361884 93.0
40.370883015 64.0
40.423404146 36.0
40.475925276 21.0
40.528446407 19.0
40.580967538 30.0
40.633488668 37.0
40.686009799 24.0
40.738530930 32.0
40.791052060 22.0
40.843573191 34.0
40.896094322 23.0
40.948615453 31.0
41.001136583 48.0
41.053657714 33.0
41.106178845 83.0
41.158699975 83.0
41.211221106 64.0
41.263742237 41.0
41.316263367 22.0
41.368784498 30.0
41.421305629 32.0
41.473826760 35.0
41.526347890 20.0
41.578869021 22.0
41.631390152 33.0
41.683911282 37.0
41.736432413 12.0
41.788953544 29.0
41.841474674 29.0
41.893995805 25.0
41.946516936 30.0
41.999038067 34.0
42.051559197 38.0
42.104080328 25.0
42.156601459 21.0
42.209122589 24.0
42.261643720 27.0
42.314164851 29.0
42.366685981 40.0
42.419207112 52.0
42.471728243 131.0
42.524249374 94.0
42.576770504 41.0
42.629291635 31.0
42.681812766 25.0
42.734333896 38.0
42.786855027 25.0
42.839376158 37.0
42.891897288 43.0
42.944418419 41.0
42.996939550 31.0
43.049460681 27.0
43.101981811 57.0
43.154502942 67.0
43.207024073 83.0
43.259545203 131.0
43.312066334 260.0
43.364587465 318.0
43.417108595 270.0
43.469629726 151.0
43.522150857 99.0
43.574671988 65.0
43.627193118 63.0
43.679714249 59.0
43.732235380 58.0
43.784756510 59.0
43.837277641 58.0
43.889798772 73.0
43.942319902 70.0
43.994841033 96.0
44.047362164 97.0
44.099883295 137.0
44.152404425 158.0
44.204925556 215.0
44.257446687 302.0
44.309967817 443.0
44.362488948 386.0
44.415010079 248.0
44.467531209 165.0
44.520052340 131.0
44.572573471 87.0
44.625094602 60.0
44.677615732 69.0
44.730136863 53.0
44.782657994 51.0
44.835179124 46.0
44.887700255 55.0
44.940221386 69.0
44.992742516 43.0
45.045263647 45.0
45.097784778 32.0
45.150305909 26.0
45.202827039 37.0
45.255348170 32.0
45.307869301 28.0
45.360390431 22.0
45.412911562 31.0
45.465432693 23.0
45.517953824 22.0
45.570474954 23.0
45.622996085 24.0
45.675517216 16.0
45.728038346 37.0
45.780559477 74.0
45.833080608 71.0
45.885601738 42.0
45.938122869 21.0
45.990644000 30.0
46.043165131 25.0
46.095686261 20.0
46.148207392 20.0
46.200728523 34.0
46.253249653 19.0
46.305770784 30.0
46.358291915 23.0
46.410813045 32.0
46.463334176 23.0
46.515855307 22.0
46.568376438 26.0
46.620897568 23.0
46.673418699 21.0
46.725939830 28.0
46.778460960 27.0
46.830982091 23.0
46.883503222 39.0
46.936024352 32.0
46.988545483 34.0
47.041066614 42.0
47.093587745 42.0
47.146108875 54.0
47.198630006 53.0
47.251151137 73.0
47.303672267 104.0
47.356193398 120.0
47.408714529 98.0
47.461235659 93.0
47.513756790 67.0
47.566277921 108.0
47.618799052 128.0
47.671320182 271.0
47.723841313 361.0
47.776362444 404.0
47.828883574 384.0
47.881404705 278.0
47.933925836 127.0
47.986446966 103.0
48.038968097 77.0
48.091489228 50.0
48.144010359 54.0
48.196531489 44.0
48.249052620 44.0
48.301573751 53.0
48.354094881 52.0
48.406616012 58.0
48.459137143 51.0
48.511658273 66.0
48.564179404 101.0
48.616700535 117.0
48.669221666 228.0
48.721742796 325.0
48.774263927 368.0
48.826785058 299.0
48.879306188 211.0
48.931827319 85.0
48.984348450 52.0
49.036869580 59.0
49.089390711 50.0
49.141911842 37.0
49.194432973 44.0
49.246954103 47.0
49.299475234 33.0
49.351996365 32.0
49.404517495 25.0
49.457038626 20.0
49.509559757 21.0
49.562080887 34.0
49.614602018 21.0
49.667123149 12.0
49.719644280 22.0
49.772165410 19.0
49.824686541 27.0
49.877207672 25.0
49.929728802 32.0
49.982249933 21.0
50.034771064 34.0
50.087292194 70.0
50.139813325 235.0
50.192334456 285.0
50.244855587 63.0
50.297376717 26.0
50.349897848 21.0
50.402418979 33.0
50.454940109 52.0
50.507461240 62.0
50.559982371 60.0
50.612503501 36.0
50.665024632 31.0
50.717545763 19.0
50.770066894 24.0
50.822588024 18.0
50.875109155 26.0
50.927630286 21.0
50.980151416 22.0
51.032672547 44.0
51.085193678 52.0
51.137714808 54.0
51.190235939 36.0
51.242757070 28.0
51.295278201 26.0
51.347799331 22.0
51.400320462 20.0
51.452841593 16.0
51.505362723 12.0
51.557883854 22.0
51.610404985 15.0
51.662926115 15.0
51.715447246 14.0
51.767968377 16.0
51.820489508 21.0
51.873010638 17.0
51.925531769 20.0
51.978052900 17.0
52.030574030 21.0
52.083095161 16.0
52.135616292 23.0
52.188137422 20.0
52.240658553 16.0
52.293179684 10.0
52.345700815 20.0
52.398221945 26.0
52.450743076 14.0
52.503264207 20.0
52.555785337 11.0
52.608306468 15.0
52.660827599 14.0
52.713348729 14.0
52.765869860 17.0
52.818390991 18.0
52.870912122 13.0
52.923433252 19.0
52.975954383 11.0
53.028475514 13.0
53.080996644 15.0
53.133517775 12.0
53.186038906 8.0
53.238560036 7.0
53.291081167 11.0
53.343602298 13.0
53.396123429 5.0
53.448644559 7.0
53.501165690 20.0
53.553686821 19.0
53.606207951 11.0
53.658729082 16.0
53.711250213 21.0
53.763771344 14.0
53.816292474 15.0
53.868813605 13.0
53.921334736 12.0
53.973855866 10.0
54.026376997 14.0
54.078898128 13.0
54.131419258 16.0
54.183940389 12.0
54.236461520 20.0
54.288982651 21.0
54.341503781 10.0
54.394024912 8.0
54.446546043 14.0
54.499067173 13.0
54.551588304 16.0
54.604109435 18.0
54.656630565 17.0
54.709151696 16.0
54.761672827 18.0
54.814193958 29.0
54.866715088 83.0
54.919236219 124.0
54.971757350 43.0
55.024278480 19.0
55.076799611 16.0
55.129320742 14.0
55.181841872 7.0
55.234363003 10.0
55.286884134 24.0
55.339405265 33.0
55.391926395 29.0
55.444447526 19.0
55.496968657 10.0
55.549489787 11.0
55.602010918 14.0
55.654532049 10.0
55.707053179 17.0
55.759574310 16.0
55.812095441 17.0
55.864616572 6.0
55.917137702 21.0
55.969658833 7.0
56.022179964 14.0
56.074701094 11.0
56.127222225 15.0
56.179743356 21.0
56.232264486 12.0
56.284785617 18.0
56.337306748 14.0
56.389827879 9.0
56.442349009 18.0
56.494870140 12.0
56.547391271 10.0
56.599912401 21.0
56.652433532 23.0
56.704954663 42.0
56.757475793 58.0
56.809996924 52.0
56.862518055 58.0
56.915039186 57.0
56.967560316 34.0
57.020081447 19.0
57.072602578 32.0
57.125123708 33.0
57.177644839 26.0
57.230165970 24.0
57.282687100 20.0
57.335208231 32.0
57.387729362 32.0
57.440250493 32.0
57.492771623 54.0
57.545292754 56.0
57.597813885 94.0
57.650335015 110.0
57.702856146 119.0
57.755377277 84.0
57.807898407 47.0
57.860419538 35.0
57.912940669 28.0
57.965461800 14.0
58.017982930 30.0
58.070504061 29.0
58.123025192 19.0
58.175546322 29.0
58.228067453 22.0
58.280588584 26.0
58.333109714 33.0
58.385630845 38.0
58.438151976 36.0
58.490673107 30.0
58.543194237 21.0
58.595715368 23.0
58.648236499 18.0
58.700757629 9.0
58.753278760 12.0
58.805799891 26.0
58.858321021 15.0
58.910842152 27.0
58.963363283 22.0
59.015884414 15.0
59.068405544 19.0
59.120926675 18.0
59.173447806 18.0
59.225968936 16.0
59.278490067 15.0
59.331011198 19.0
59.383532328 9.0
59.436053459 9.0
59.488574590 10.0
59.541095721 9.0
59.593616851 10.0
59.646137982 15.0
59.698659113 26.0
59.751180243 20.0
59.803701374 25.0
59.856222505 29.0
59.908743635 47.0
59.961264766 170.0
60.013785897 145.0
60.066307028 55.0
60.118828158 19.0
60.171349289 13.0
60.223870420 18.0
60.276391550 20.0
60.328912681 15.0
60.381433812 20.0
60.433954942 15.0
60.486476073 22.0
60.538997204 21.0
60.591518335 23.0
60.644039465 29.0
60.696560596 19.0
60.749081727 29.0
60.801602857 39.0
60.854123988 59.0
60.906645119 82.0
60.959166249 76.0
61.011687380 82.0
61.064208511 72.0
61.116729642 43.0
61.169250772 57.0
61.221771903 70.0
61.274293034 89.0
61.326814164 105.0
61.379335295 87.0
61.431856426 79.0
61.484377556 43.0
61.536898687 27.0
61.589419818 41.0
61.641940949 52.0
61.694462079 60.0
61.746983210 58.0
61.799504341 51.0
61.852025471 41.0
61.904546602 32.0
61.957067733 23.0
62.009588864 28.0
62.062109994 13.0
62.114631125 17.0
62.167152256 17.0
62.219673386 16.0
62.272194517 6.0
62.324715648 10.0
62.377236778 24.0
62.429757909 12.0
62.482279040 10.0
62.534800171 14.0
62.587321301 21.0
62.639842432 11.0
62.692363563 6.0
62.744884693 18.0
62.797405824 22.0
62.849926955 21.0
62.902448085 14.0
62.954969216 19.0
63.007490347 23.0
63.060011478 17.0
63.112532608 24.0
63.165053739 25.0
63.217574870 22.0
63.270096000 44.0
63.322617131 26.0
63.375138262 54.0
63.427659392 43.0
63.480180523 51.0
63.532701654 23.0
63.585222785 15.0
63.637743915 24.0
63.690265046 22.0
63.742786177 21.0
63.795307307 29.0
63.847828438 31.0
63.900349569 27.0
63.952870699 22.0
64.005391830 41.0
64.057912961 86.0
64.110434092 66.0
64.162955222 63.0
64.215476353 71.0
64.267997484 90.0
64.320518614 126.0
64.373039745 160.0
64.425560876 300.0
64.478082006 350.0
64.530603137 253.0
64.583124268 191.0
64.635645399 136.0
64.688166529 109.0
64.740687660 72.0
64.793208791 85.0
64.845729921 84.0
64.898251052 86.0
64.950772183 93.0
65.003293313 87.0
65.055814444 78.0
65.108335575 62.0
65.160856706 46.0
65.213377836 27.0
65.265898967 33.0
65.318420098 40.0
65.370941228 32.0
65.423462359 31.0
65.475983490 20.0
65.528504620 20.0
65.581025751 45.0
65.633546882 18.0
65.686068013 26.0
65.738589143 35.0
65.791110274 33.0
65.843631405 57.0
65.896152535 69.0
65.948673666 80.0
66.001194797 84.0
66.053715927 70.0
66.106237058 75.0
66.158758189 69.0
66.211279320 29.0
66.263800450 30.0
66.316321581 31.0
66.368842712 26.0
66.421363842 26.0
66.473884973 12.0
66.526406104 16.0
66.578927234 19.0
66.631448365 18.0
66.683969496 11.0
66.736490627 10.0
66.789011757 10.0
66.841532888 14.0
66.894054019 17.0
66.946575149 17.0
66.999096280 9.0
67.051617411 10.0
67.104138541 7.0
67.156659672 20.0
67.209180803 12.0
67.261701934 7.0
67.314223064 22.0
67.366744195 19.0
67.419265326 20.0
67.471786456 11.0
67.524307587 20.0
67.576828718 9.0
67.629349848 20.0
67.681870979 34.0
67.734392110 87.0
67.786913241 148.0
67.839434371 53.0
67.891955502 19.0
67.944476633 16.0
67.996997763 22.0
68.049518894 16.0
68.102040025 49.0
68.154561155 127.0
68.207082286 103.0
68.259603417 46.0
68.312124548 90.0
68.364645678 101.0
68.417166809 45.0
68.469687940 19.0
68.522209070 13.0
68.574730201 14.0
68.627251332 11.0
68.679772462 13.0
68.732293593 14.0
68.784814724 18.0
68.837335855 14.0
68.889856985 13.0
68.942378116 10.0
68.994899247 8.0
69.047420377 9.0
69.099941508 13.0
69.152462639 18.0
69.204983769 6.0
69.257504900 16.0
69.310026031 14.0
69.362547162 9.0
69.415068292 17.0
69.467589423 29.0
69.520110554 28.0
69.572631684 26.0
69.625152815 38.0
69.677673946 26.0
69.730195076 17.0
69.782716207 20.0
69.835237338 20.0
69.887758469 21.0
69.940279599 11.0
69.992800730 13.0
